time,lat,lon,hMSL,velN,velE,velD,hAcc,vAcc,sAcc,heading,cAcc,gpsFix,numSV
,(deg),(deg),(m),(m/s),(m/s),(m/s),(m),(m),(m/s),(deg),(deg),,
2021-12-11T13:46:02.20Z,33.6568828,-117.7466357,28.048,-0.11,0.13,0.22,43.919,93.802,3.03,0.0,174.77126,3,5
2021-12-11T13:46:02.40Z,33.6568759,-117.7466345,26.409,-0.02,0.18,-0.03,26.546,41.974,1.31,0.0,158.70304,3,5
2021-12-11T13:46:03.00Z,33.656868599999996,-117.7466156,31.001,0.04,-0.1,-0.07,20.239,33.46,0.98,0.0,158.70468,3,5
2021-12-11T13:46:03.20Z,33.656864,-117.746604,32.683,-0.05,-0.17,-0.01,18.652,30.749,0.71,0.0,158.70508,3,5
2021-12-11T13:46:03.40Z,33.6568618,-117.74659600000001,34.416,0.08,-0.22,-0.02,17.472,28.579,0.96,0.0,158.70562,3,5
2021-12-11T13:46:03.60Z,33.65686049999999,-117.7465902,35.82,0.06,-0.16,0.05,16.564,26.852,1.0,0.0,158.70618,3,5
2021-12-11T13:46:03.80Z,33.656858099999994,-117.746584,36.495,0.07,-0.1,0.08,15.724,25.363,1.06,0.0,158.70678,3,5
2021-12-11T13:46:04.00Z,33.656857,-117.74658240000001,36.059,-0.01,0.1,0.21,14.843,23.949,1.16,0.0,158.70744,3,5
2021-12-11T13:46:04.20Z,33.656853299999995,-117.74657330000001,38.157,0.16,0.02,0.43,13.959,21.822,1.06,0.0,158.70804,3,5
2021-12-11T13:46:04.40Z,33.6568507,-117.7465677,39.385,0.03,-0.02,0.26,13.304,20.376,1.11,0.0,158.70868,3,5
2021-12-11T13:46:04.60Z,33.6568479,-117.746559,41.538,0.25,-0.16,0.28,12.756,19.147,0.93,0.0,158.7092,3,5
2021-12-11T13:46:04.80Z,33.6568448,-117.7465494,43.449,0.3,0.05,0.08,12.285,18.167,0.4,0.0,158.70942,3,5
2021-12-11T13:46:05.00Z,33.6568424,-117.7465418,45.063,0.13,0.0,0.05,11.844,17.313,0.54,0.0,158.70972,3,5
2021-12-11T13:46:05.20Z,33.6568409,-117.74653740000001,46.162,-0.06,0.05,0.1,11.431,16.55,0.91,0.0,158.71024,3,5
2021-12-11T13:46:05.40Z,33.6568416,-117.74653740000001,46.536,0.18,-0.09,0.17,11.024,15.969,0.93,0.0,158.71076,3,5
2021-12-11T13:46:05.60Z,33.6568414,-117.7465346,47.618,0.01,-0.06,0.24,10.652,15.332,0.96,0.0,158.7113,3,5
2021-12-11T13:46:05.80Z,33.6568404,-117.7465306,48.62,-0.03,-0.03,0.11,10.332,14.799,0.89,0.0,158.71182,3,5
2021-12-11T13:46:06.00Z,33.6568396,-117.74652710000001,49.537,-0.01,0.07,0.0,10.002,14.285,0.73,0.0,158.71222,3,5
2021-12-11T13:46:06.20Z,33.6568385,-117.74652300000001,50.139,-0.06,0.01,-0.05,9.738,13.938,0.73,0.0,158.71264,3,5
2021-12-11T13:46:06.40Z,33.6568383,-117.7465212,50.52,0.03,-0.02,0.08,9.499,13.622,0.9,0.0,158.71314,3,5
2021-12-11T13:46:06.60Z,33.6568386,-117.74651990000001,50.974,0.0,-0.08,0.06,9.264,13.3,0.76,0.0,158.71356,3,5
2021-12-11T13:46:06.80Z,33.656839,-117.746519,51.214,0.04,-0.1,0.08,9.047,13.052,0.81,0.0,158.71402,3,5
2021-12-11T13:46:07.00Z,33.6568396,-117.74651920000001,51.244,-0.03,-0.17,0.11,8.817,12.802,0.68,0.0,158.7144,3,5
2021-12-11T13:46:07.20Z,33.6568402,-117.74651940000001,51.374,-0.04,-0.26,0.3,8.668,12.607,0.8,0.0,158.71486,3,5
2021-12-11T13:46:07.40Z,33.6568403,-117.74651970000001,52.182,-0.03,-0.52,-0.4,8.521,12.295,0.95,0.0,158.7154,3,5
2021-12-11T13:46:07.60Z,33.656839899999994,-117.74652,52.6,0.0,-0.22,0.1,8.445,12.098,0.71,0.0,158.71578,3,5
2021-12-11T13:46:07.80Z,33.6568401,-117.7465215,52.549,-0.06,-0.08,-0.03,8.371,12.001,0.58,0.0,158.71612,3,5
2021-12-11T13:46:08.00Z,33.6568403,-117.7465232,52.382,-0.1,-0.15,-0.07,8.3,11.93,0.73,0.0,158.71652,3,5
2021-12-11T13:46:08.20Z,33.656824900000004,-117.74649450000001,52.54,0.06,-0.03,-0.15,7.67,11.84,0.93,0.0,158.71706,3,6
2021-12-11T13:46:08.40Z,33.6568151,-117.7464752,52.828,0.24,-0.18,-0.35,7.295,11.824,0.82,0.0,158.71752,3,6
2021-12-11T13:46:08.60Z,33.6568086,-117.7464631,52.761,0.19,-0.18,-0.01,7.001,11.8,0.45,0.0,158.71778,3,6
2021-12-11T13:46:08.80Z,33.656803999999994,-117.7464537,52.665,0.03,0.06,0.19,6.77,11.768,0.94,0.0,158.71832,3,6
2021-12-11T13:46:09.00Z,33.6568005,-117.7464477,52.472,-0.06,-0.05,0.09,6.594,11.755,0.96,0.0,158.71886,3,6
2021-12-11T13:46:09.20Z,33.656797499999996,-117.746443,52.585,-0.16,-0.15,-0.13,6.475,11.758,0.53,0.0,158.71916,3,6
2021-12-11T13:46:09.40Z,33.656795,-117.74643900000001,52.544,-0.03,-0.1,0.03,6.373,11.764,0.68,0.0,158.71956,3,6
2021-12-11T13:46:09.60Z,33.6567926,-117.7464353,52.532,-0.13,-0.23,0.04,6.275,11.772,0.54,0.0,158.71986,3,6
2021-12-11T13:46:09.80Z,33.6567904,-117.7464317,52.555,-0.01,-0.06,0.28,6.185,11.753,1.09,0.0,158.72048,3,6
2021-12-11T13:46:10.00Z,33.6567888,-117.7464284,52.555,0.06,0.07,0.23,6.113,11.752,0.94,0.0,158.721,3,6
2021-12-11T13:46:10.20Z,33.6567875,-117.74642580000001,52.416,0.12,0.05,0.18,6.037,11.736,0.84,0.0,158.72148,3,6
2021-12-11T13:46:10.40Z,33.6567866,-117.7464243,52.141,0.01,0.11,-0.07,5.942,11.66,0.75,0.0,158.7219,3,6
2021-12-11T13:46:10.60Z,33.6567859,-117.7464233,51.827,0.03,-0.02,-0.1,5.851,11.581,0.95,0.0,158.72244,3,6
2021-12-11T13:46:10.80Z,33.656785,-117.7464219,51.637,-0.04,0.03,0.02,5.775,11.519,0.55,0.0,158.72276,3,6
2021-12-11T13:46:11.00Z,33.6567844,-117.74642130000001,51.309,0.03,0.02,-0.01,5.706,11.461,0.42,0.0,158.72298,3,6
2021-12-11T13:46:11.20Z,33.65678389999999,-117.7464207,51.048,-0.02,-0.01,-0.02,5.642,11.404,0.68,0.0,158.72338,3,6
2021-12-11T13:46:11.40Z,33.6567832,-117.7464199,50.764,0.01,0.0,0.11,5.585,11.355,1.01,0.0,158.72394,3,6
2021-12-11T13:46:11.60Z,33.6567828,-117.74641960000001,50.424,0.01,0.0,0.21,5.532,11.304,1.01,0.0,158.72452,3,6
2021-12-11T13:46:11.80Z,33.6567825,-117.7464192,50.283,0.11,-0.12,0.0,5.492,11.269,0.47,0.0,158.7248,3,6
2021-12-11T13:46:12.00Z,33.656782,-117.7464192,49.926,-0.2,-0.07,0.61,5.457,11.245,1.04,0.0,158.72538,3,6
2021-12-11T13:46:12.20Z,33.6567816,-117.74641890000001,49.724,-0.02,-0.07,0.27,5.421,11.22,1.09,0.0,158.726,3,6
2021-12-11T13:46:12.40Z,33.6567809,-117.746418,49.614,-0.03,-0.05,0.23,5.378,11.184,1.09,0.0,158.72662,3,6
2021-12-11T13:46:12.60Z,33.6567802,-117.74641700000001,49.532,0.02,-0.11,0.29,5.345,11.163,1.06,0.0,158.72722,3,6
2021-12-11T13:46:12.80Z,33.6567796,-117.7464161,49.465,-0.03,-0.1,0.31,5.309,11.138,1.07,0.0,158.72782,3,6
2021-12-11T13:46:13.00Z,33.656779099999994,-117.74641510000001,49.494,0.03,-0.06,0.25,5.278,11.118,1.06,0.0,158.72842,3,6
2021-12-11T13:46:13.20Z,33.656778599999996,-117.7464143,49.546,0.02,-0.09,0.18,5.25,11.101,1.02,0.0,158.72902,3,6
2021-12-11T13:46:13.40Z,33.656778,-117.7464132,49.619,0.02,-0.08,0.21,5.223,11.084,1.06,0.0,158.72962,3,6
2021-12-11T13:46:13.60Z,33.6567776,-117.74641270000001,49.602,-0.01,-0.08,0.12,5.198,11.072,1.02,0.0,158.73018,3,6
2021-12-11T13:46:13.80Z,33.65677719999999,-117.7464118,49.673,0.13,-0.07,0.01,5.176,11.066,0.42,0.0,158.73042,3,6
2021-12-11T13:46:14.00Z,33.6567769,-117.74641120000001,49.682,-0.04,-0.05,0.03,5.157,11.061,0.73,0.0,158.73082,3,6
2021-12-11T13:46:14.20Z,33.6567764,-117.74641050000001,49.717,-0.04,-0.05,0.07,5.136,11.056,0.96,0.0,158.73138,3,6
2021-12-11T13:46:14.40Z,33.6567759,-117.7464095,49.871,0.01,0.0,-0.11,5.115,11.048,1.12,0.0,158.732,3,6
2021-12-11T13:46:14.60Z,33.656775499999995,-117.7464087,49.964,0.02,-0.1,-0.09,5.097,11.049,0.76,0.0,158.73244,3,6
2021-12-11T13:46:14.80Z,33.6567753,-117.7464082,50.02,0.09,-0.05,-0.17,5.077,11.046,0.99,0.0,158.733,3,6
2021-12-11T13:46:15.00Z,33.656774999999996,-117.7464076,50.092,0.09,-0.11,-0.1,5.059,11.044,0.75,0.0,158.73342,3,6
2021-12-11T13:46:15.20Z,33.6567747,-117.7464073,50.056,0.01,0.0,0.03,5.04,11.042,1.05,0.0,158.73402,3,6
2021-12-11T13:46:15.40Z,33.6567745,-117.74640720000001,49.987,0.02,-0.12,0.03,5.023,11.041,0.65,0.0,158.7344,3,6
2021-12-11T13:46:15.60Z,33.656774299999995,-117.74640690000001,49.945,-0.03,0.03,-0.04,5.004,11.039,0.87,0.0,158.73488,3,6
2021-12-11T13:46:15.80Z,33.656774,-117.7464063,49.97,-0.02,0.09,-0.15,4.989,11.041,1.07,0.0,158.73548,3,6
2021-12-11T13:46:16.00Z,33.656773599999994,-117.7464056,50.006,0.07,-0.04,-0.01,4.974,11.042,0.45,0.0,158.73574,3,6
2021-12-11T13:46:16.20Z,33.6567733,-117.7464051,49.958,-0.04,-0.06,0.17,4.956,11.042,1.13,0.0,158.73638,3,6
2021-12-11T13:46:16.40Z,33.6567728,-117.7464041,50.166,0.1,-0.08,-0.11,4.944,11.052,0.83,0.0,158.73686,3,6
2021-12-11T13:46:16.60Z,33.6567728,-117.74640330000001,50.223,0.23,0.18,-0.07,4.937,11.081,0.63,0.0,158.7372,3,6
2021-12-11T13:46:16.80Z,33.6567728,-117.7464034,50.034,-0.07,-0.13,0.17,4.933,11.114,1.12,0.0,158.73784,3,6
2021-12-11T13:46:17.00Z,33.656772399999994,-117.7464028,50.128,-0.06,0.1,0.12,4.932,11.143,0.98,0.0,158.7384,3,6
2021-12-11T13:46:17.20Z,33.6567722,-117.7464022,50.037,0.02,0.2,0.16,4.923,11.166,0.74,0.0,158.73882,3,6
2021-12-11T13:46:17.40Z,33.656772000000004,-117.7464018,50.105,-0.01,-0.19,-0.18,4.916,11.191,0.78,0.0,158.73926,3,6
2021-12-11T13:46:17.60Z,33.6567717,-117.74640140000001,50.127,0.1,-0.02,0.16,4.917,11.226,1.04,0.0,158.73984,3,6
2021-12-11T13:46:17.80Z,33.6567716,-117.7464009,50.163,0.04,0.0,0.16,4.919,11.253,1.18,0.0,158.74052,3,6
2021-12-11T13:46:18.00Z,33.6567715,-117.74640070000001,50.287,0.09,-0.3,-0.2,4.921,11.295,0.67,0.0,158.7409,3,6
2021-12-11T13:46:18.20Z,33.6567708,-117.74640000000001,50.085,-0.07,0.13,0.07,4.873,11.017,0.6,0.0,158.74122,3,7
2021-12-11T13:46:18.40Z,33.6567703,-117.7463997,49.852,-0.04,0.03,0.24,4.815,10.823,0.9,0.0,158.74174,3,7
2021-12-11T13:46:18.60Z,33.656769499999996,-117.74639900000001,49.786,-0.08,0.1,0.24,4.757,10.628,0.8,0.0,158.74218,3,7
2021-12-11T13:46:18.80Z,33.6567692,-117.74639950000001,49.445,0.08,-0.12,0.2,4.691,10.411,0.81,0.0,158.74264,3,7
2021-12-11T13:46:19.00Z,33.656768799999995,-117.7463991,49.289,0.11,0.07,0.31,4.62,10.173,0.77,0.0,158.74308,3,7
2021-12-11T13:46:19.20Z,33.6567685,-117.7463989,49.099,-0.01,-0.16,0.49,4.598,10.11,0.93,0.0,158.74362,3,7
2021-12-11T13:46:19.40Z,33.656768,-117.7463985,49.102,0.03,-0.09,0.26,4.577,10.055,0.92,0.0,158.74414,3,7
2021-12-11T13:46:19.60Z,33.6567675,-117.74639810000001,49.216,0.02,-0.24,-0.21,4.556,10.001,0.67,0.0,158.74452,3,7
2021-12-11T13:46:19.80Z,33.656767099999996,-117.746398,49.346,0.15,-0.24,-0.15,4.501,9.824,0.57,0.0,158.74484,3,7
2021-12-11T13:46:20.00Z,33.656766399999995,-117.74639640000001,49.846,0.14,0.05,-0.3,4.381,9.399,0.68,0.0,158.74522,3,7
2021-12-11T13:46:20.20Z,33.656765899999996,-117.7463956,50.023,-0.03,-0.08,-0.2,4.348,9.294,0.74,0.0,158.74566,3,7
2021-12-11T13:46:20.40Z,33.6567649,-117.7463931,50.642,0.05,0.02,0.0,4.253,8.945,0.36,0.0,158.74586,3,7
2021-12-11T13:46:20.60Z,33.656762,-117.7463846,53.091,-0.02,-0.15,0.11,3.892,7.532,0.51,0.0,158.74614,3,7
2021-12-11T13:46:20.80Z,33.656761,-117.74638180000001,53.926,0.08,-0.06,-0.02,3.537,5.994,0.57,0.0,158.74648,3,7
2021-12-11T13:46:21.00Z,33.6567608,-117.7463809,54.194,0.08,0.01,0.15,3.376,5.203,0.52,0.0,158.74676,3,7
2021-12-11T13:46:21.20Z,33.6567606,-117.74638060000001,54.408,0.07,-0.17,0.01,3.35,5.06,0.75,0.0,158.74718,3,7
2021-12-11T13:46:21.40Z,33.656760899999995,-117.7463815,54.27,0.06,-0.1,0.01,3.307,4.824,0.72,0.0,158.7476,3,7
2021-12-11T13:46:21.60Z,33.656760899999995,-117.7463819,54.0,0.0,0.02,0.1,3.267,4.628,0.6,0.0,158.74794,3,7
2021-12-11T13:46:21.80Z,33.656761599999996,-117.74638440000001,53.239,0.0,-0.12,0.19,3.233,4.461,0.5,0.0,158.74822,3,7
2021-12-11T13:46:22.00Z,33.6567623,-117.746387,52.363,-0.06,0.09,0.27,3.157,4.056,0.53,0.0,158.74852,3,7
2021-12-11T13:46:22.20Z,33.656762,-117.74638680000001,52.296,0.05,0.06,0.05,3.109,3.785,0.52,0.0,158.74882,3,7
2021-12-11T13:46:22.40Z,33.656762,-117.74638630000001,52.336,-0.01,0.0,0.13,3.094,3.72,0.57,0.0,158.74914,3,7
2021-12-11T13:46:22.60Z,33.656762099999995,-117.7463867,52.257,0.05,-0.12,0.11,3.085,3.663,0.52,0.0,158.74944,3,7
2021-12-11T13:46:22.80Z,33.656762099999995,-117.7463867,52.161,-0.03,0.17,0.25,3.086,3.643,0.81,0.0,158.7499,3,7
2021-12-11T13:46:23.00Z,33.6567615,-117.7463862,52.243,0.04,-0.23,0.07,3.09,3.649,0.71,0.0,158.7503,3,7
2021-12-11T13:46:23.20Z,33.6567624,-117.74638680000001,51.943,-0.01,-0.07,0.46,3.077,3.628,0.7,0.0,158.7507,3,7
2021-12-11T13:46:23.40Z,33.6567619,-117.74638660000001,51.936,-0.03,-0.29,0.32,3.074,3.642,0.71,0.0,158.75112,3,7
2021-12-11T13:46:23.60Z,33.6567617,-117.7463865,51.851,-0.05,0.1,0.36,3.071,3.666,0.88,0.0,158.75162,3,7
2021-12-11T13:46:23.80Z,33.656762099999995,-117.7463864,51.817,0.09,0.15,-0.19,3.069,3.699,0.97,0.0,158.75216,3,7
2021-12-11T13:46:24.00Z,33.6567623,-117.74638630000001,51.806,0.02,0.06,-0.13,3.073,3.738,1.04,0.0,158.75276,3,7
2021-12-11T13:46:24.20Z,33.656762,-117.746386,51.881,-0.12,-0.11,-0.23,3.074,3.776,0.73,0.0,158.75316,3,7
2021-12-11T13:46:24.40Z,33.6567622,-117.746386,52.003,0.01,0.04,-0.78,3.073,3.819,0.96,0.0,158.75372,3,7
2021-12-11T13:46:24.60Z,33.656761599999996,-117.74638540000001,52.068,-0.21,0.06,-0.36,3.077,3.866,0.89,0.0,158.75422,3,7
2021-12-11T13:46:24.80Z,33.6567607,-117.74638490000001,52.083,-0.37,0.07,-0.07,3.076,3.897,0.37,0.0,158.75444,3,7
2021-12-11T13:46:25.00Z,33.656760199999994,-117.7463845,52.137,-0.25,0.17,-0.46,3.068,3.91,0.82,0.0,158.7549,3,7
2021-12-11T13:46:25.20Z,33.656760199999994,-117.74638440000001,52.098,0.03,0.15,-0.33,3.057,3.907,0.83,0.0,158.75536,3,7
2021-12-11T13:46:25.40Z,33.656759699999995,-117.74638320000001,52.127,-0.24,0.63,0.04,3.05,3.903,0.56,108.37053,24.93122,3,7
2021-12-11T13:46:25.60Z,33.6567595,-117.7463828,52.16,-0.09,-0.04,-0.16,3.034,3.879,0.64,108.37053,24.93352,3,7
2021-12-11T13:46:25.80Z,33.6567595,-117.7463829,52.106,0.1,-0.12,0.22,3.022,3.873,0.65,108.37053,24.93587,3,7
2021-12-11T13:46:26.00Z,33.6567599,-117.7463836,52.039,-0.04,-0.2,-0.24,3.016,3.895,0.69,108.37053,24.93835,3,7
2021-12-11T13:46:26.20Z,33.6567598,-117.7463838,51.959,-0.22,0.18,-0.11,3.014,3.923,0.5,108.37053,24.94015,3,7
2021-12-11T13:46:26.40Z,33.6567598,-117.7463836,51.906,0.01,0.18,-0.14,3.012,3.952,0.7,108.37053,24.94267,3,7
2021-12-11T13:46:26.60Z,33.6567599,-117.74638350000001,51.803,-0.07,0.16,0.0,3.013,3.986,0.51,108.37053,24.94449,3,7
2021-12-11T13:46:26.80Z,33.6567601,-117.7463834,51.771,-0.03,0.19,-0.24,3.012,4.018,0.79,108.37053,24.94736,3,7
2021-12-11T13:46:27.00Z,33.6567601,-117.74638320000001,51.755,0.04,0.06,-0.18,3.011,4.05,0.87,108.37053,24.9505,3,7
2021-12-11T13:46:27.20Z,33.65676,-117.74638300000001,51.771,-0.05,-0.01,-0.15,3.011,4.083,0.85,108.37053,24.95355,3,7
2021-12-11T13:46:27.40Z,33.6567607,-117.74638370000001,51.626,0.0,0.06,-0.23,3.005,4.109,0.88,108.37053,24.95671,3,7
2021-12-11T13:46:27.60Z,33.656760899999995,-117.7463836,51.635,0.02,0.04,-0.23,2.995,4.112,0.79,108.37053,24.95956,3,7
2021-12-11T13:46:27.80Z,33.6567612,-117.7463841,51.553,-0.01,-0.09,-0.2,2.979,4.08,0.67,108.37053,24.96197,3,7
2021-12-11T13:46:28.00Z,33.6567613,-117.74638420000001,51.494,-0.05,0.03,-0.02,2.963,4.047,0.43,108.37053,24.96351,3,7
2021-12-11T13:46:28.20Z,33.6567615,-117.7463843,51.423,-0.01,-0.04,0.04,2.947,4.014,0.55,108.37053,24.9655,3,7
2021-12-11T13:46:28.40Z,33.6567618,-117.74638470000001,51.26,-0.02,-0.02,0.08,2.932,3.984,0.61,108.37053,24.9677,3,7
2021-12-11T13:46:28.60Z,33.6567622,-117.7463853,51.105,0.04,-0.03,-0.04,2.917,3.955,0.53,108.37053,24.9696,3,7
2021-12-11T13:46:28.80Z,33.6567627,-117.7463859,50.955,0.05,-0.08,0.06,2.901,3.928,0.51,108.37053,24.97142,3,7
2021-12-11T13:46:29.00Z,33.6567627,-117.74638630000001,50.838,0.01,-0.02,0.1,2.886,3.903,0.62,108.37053,24.97364,3,7
2021-12-11T13:46:29.20Z,33.656762799999996,-117.74638660000001,50.749,0.08,-0.08,0.12,2.871,3.878,0.52,108.37053,24.97553,3,7
2021-12-11T13:46:29.40Z,33.6567631,-117.74638730000001,50.505,0.02,-0.04,0.15,2.859,3.855,0.61,108.37053,24.97771,3,7
2021-12-11T13:46:29.60Z,33.656763,-117.74638730000001,50.499,0.06,-0.09,0.11,2.846,3.83,0.52,108.37053,24.97959,3,7
2021-12-11T13:46:29.80Z,33.65676259999999,-117.7463867,50.694,0.03,-0.07,-0.02,2.833,3.807,0.51,108.37053,24.98142,3,7
2021-12-11T13:46:30.00Z,33.6567625,-117.746386,50.841,0.04,0.08,-0.04,2.823,3.786,0.43,108.37053,24.98299,3,7
2021-12-11T13:46:30.20Z,33.6567615,-117.7463845,51.882,-0.06,0.2,-0.05,2.794,3.593,0.45,108.37053,24.98461,3,8
2021-12-11T13:46:30.40Z,33.6567599,-117.74638420000001,53.587,-0.02,-0.08,-0.38,2.769,3.265,0.33,108.37053,24.98601,3,8
2021-12-11T13:46:30.60Z,33.6567591,-117.7463839,54.472,0.09,0.15,-0.13,2.76,3.137,0.42,108.37053,24.98752,3,8
2021-12-11T13:46:30.80Z,33.6567584,-117.7463834,55.224,0.09,-0.11,0.02,2.755,3.037,0.44,108.37053,24.98909,3,8
2021-12-11T13:46:31.00Z,33.656757799999994,-117.7463829,55.602,-0.09,0.19,0.23,2.75,2.954,0.39,108.37053,24.99048,3,8
2021-12-11T13:46:31.20Z,33.6567582,-117.74638370000001,55.562,0.05,-0.31,-0.4,2.745,2.934,0.47,108.37053,24.99231,3,8
2021-12-11T13:46:31.40Z,33.6567579,-117.74638370000001,55.599,-0.05,0.09,0.29,2.746,2.924,0.5,108.37053,24.9941,3,8
2021-12-11T13:46:31.60Z,33.6567579,-117.7463839,55.48,-0.05,0.04,0.24,2.743,2.926,0.61,108.37053,24.99628,3,8
2021-12-11T13:46:31.80Z,33.6567577,-117.74638420000001,55.399,0.03,-0.04,0.09,2.739,2.925,0.56,108.37053,24.99829,3,8
2021-12-11T13:46:32.00Z,33.6567571,-117.7463838,55.407,-0.09,0.07,0.12,2.737,2.925,0.52,108.37053,25.00015,3,8
2021-12-11T13:46:32.20Z,33.6567564,-117.7463833,55.41,-0.18,0.15,0.13,2.736,2.924,0.46,108.37053,25.0018,3,8
2021-12-11T13:46:32.40Z,33.656756099999996,-117.7463834,55.333,-0.07,0.06,0.1,2.735,2.923,0.5,108.37053,25.00361,3,8
2021-12-11T13:46:32.60Z,33.656756,-117.74638370000001,55.253,0.11,-0.06,0.06,2.736,2.923,0.41,108.37053,25.0051,3,7
2021-12-11T13:46:32.80Z,33.656756,-117.7463839,55.142,0.07,-0.17,0.5,2.739,2.933,0.66,108.37053,25.00749,3,7
2021-12-11T13:46:33.00Z,33.6567562,-117.74638370000001,55.11,0.37,-0.06,0.25,2.744,2.944,0.45,108.37053,25.00913,3,7
2021-12-11T13:46:33.20Z,33.656756599999994,-117.74638370000001,55.067,0.21,0.0,0.29,2.756,2.957,0.55,108.37053,25.0111,3,7
2021-12-11T13:46:33.40Z,33.6567569,-117.7463839,55.076,0.3,-0.18,-0.02,2.771,2.972,0.76,108.37053,25.01385,3,7
2021-12-11T13:46:33.60Z,33.656757299999995,-117.74638440000001,55.075,0.18,-0.19,-0.01,2.797,2.995,1.05,108.37053,25.01763,3,7
2021-12-11T13:46:33.80Z,33.6567576,-117.74638440000001,55.052,0.15,0.07,0.07,2.826,3.019,0.51,108.37053,25.01948,3,7
2021-12-11T13:46:34.00Z,33.6567575,-117.7463834,55.049,0.06,0.49,0.1,2.851,3.046,1.23,108.37053,25.02391,3,8
2021-12-11T13:46:34.20Z,33.6567575,-117.7463829,55.089,0.01,0.23,-0.09,2.887,3.075,1.19,108.37053,25.02818,3,7
2021-12-11T13:46:34.40Z,33.6567576,-117.7463829,55.088,0.15,-0.07,0.05,2.926,3.106,0.78,108.37053,25.03097,3,8
2021-12-11T13:46:34.60Z,33.6567576,-117.74638300000001,55.091,0.07,-0.07,0.07,2.96,3.135,0.81,108.37053,25.0339,3,8
2021-12-11T13:46:34.80Z,33.6567576,-117.7463833,55.125,0.11,-0.17,0.01,2.995,3.167,1.03,108.37053,25.0376,3,8
2021-12-11T13:46:35.00Z,33.6567575,-117.7463834,55.186,0.13,-0.15,-0.02,3.027,3.197,1.04,108.37053,25.04133,3,8
2021-12-11T13:46:35.20Z,33.656757299999995,-117.74638370000001,55.189,-0.18,-0.06,-0.09,3.062,3.231,0.81,108.37053,25.04423,3,8
2021-12-11T13:46:35.40Z,33.6567568,-117.746384,55.22,-0.12,-0.12,-0.07,3.092,3.261,0.72,108.37053,25.04681,3,8
2021-12-11T13:46:35.60Z,33.6567563,-117.74638440000001,55.185,-0.28,0.07,0.02,3.121,3.292,1.07,108.37053,25.05064,3,8
2021-12-11T13:46:35.80Z,33.6567562,-117.7463845,55.133,-0.05,0.02,0.12,3.15,3.322,0.98,108.37053,25.05416,3,8
2021-12-11T13:46:36.00Z,33.65675589999999,-117.7463843,55.111,-0.13,0.03,0.15,3.178,3.351,0.97,108.37053,25.05764,3,8
2021-12-11T13:46:36.20Z,33.656756,-117.7463853,55.15,-0.01,-0.01,0.12,3.182,3.377,0.78,108.37053,25.06045,3,9
2021-12-11T13:46:36.40Z,33.6567562,-117.7463864,55.164,0.02,-0.05,0.24,3.185,3.4,0.8,108.37053,25.06331,3,9
2021-12-11T13:46:36.60Z,33.656756599999994,-117.7463883,55.15,0.06,-0.11,0.09,3.188,3.421,0.9,108.37053,25.06653,3,9
2021-12-11T13:46:36.80Z,33.656757,-117.74638970000001,55.148,0.1,0.02,0.03,3.192,3.443,0.52,108.37053,25.06839,3,9
2021-12-11T13:46:37.00Z,33.6567576,-117.74639160000001,55.033,-0.02,-0.21,0.22,3.2,3.471,0.87,108.37053,25.0715,3,9
2021-12-11T13:46:37.20Z,33.656757299999995,-117.7463925,54.98,-0.53,0.06,0.4,3.215,3.511,0.77,108.37053,25.07426,3,9
2021-12-11T13:46:37.40Z,33.6567577,-117.7463936,54.913,0.43,-0.31,0.28,3.237,3.553,0.91,108.37053,25.07754,3,9
2021-12-11T13:46:37.60Z,33.6567584,-117.74639400000001,54.932,0.12,-0.2,0.03,3.253,3.593,0.95,108.37053,25.08096,3,9
2021-12-11T13:46:37.80Z,33.6567588,-117.74639470000001,54.908,-0.06,0.18,0.14,3.264,3.63,0.82,108.37053,25.08389,3,9
2021-12-11T13:46:38.00Z,33.6567582,-117.7463941,54.924,-0.4,0.4,0.21,3.28,3.661,0.91,108.37053,25.08715,3,9
2021-12-11T13:46:38.20Z,33.6567584,-117.7463948,54.857,0.13,0.07,-0.3,3.296,3.698,0.84,108.37053,25.09017,3,9
2021-12-11T13:46:38.40Z,33.6567581,-117.74639420000001,54.973,-0.24,0.11,-0.18,3.308,3.735,0.72,108.37053,25.09274,3,9
2021-12-11T13:46:38.60Z,33.6567586,-117.746396,54.981,0.13,-0.05,0.23,3.307,3.768,0.75,108.37053,25.09543,3,9
2021-12-11T13:46:38.80Z,33.6567586,-117.746397,54.935,-0.03,-0.46,0.08,3.32,3.796,0.93,108.37053,25.09876,3,9
2021-12-11T13:46:39.00Z,33.6567581,-117.7463973,54.905,-0.02,-0.16,0.24,3.33,3.821,0.9,108.37053,25.10198,3,9
2021-12-11T13:46:39.20Z,33.6567577,-117.7463973,54.924,0.0,-0.01,0.26,3.329,3.824,0.77,108.37053,25.10472,3,9
2021-12-11T13:46:39.40Z,33.6567577,-117.7463972,54.863,0.05,-0.02,0.2,3.325,3.833,0.69,108.37053,25.10719,3,9
2021-12-11T13:46:39.60Z,33.6567584,-117.7463979,54.688,0.17,0.14,-0.27,3.306,3.827,0.66,108.37053,25.10955,3,9
2021-12-11T13:46:39.80Z,33.6567603,-117.7464028,54.527,-0.01,-0.34,0.2,3.246,3.807,0.61,108.37053,25.11175,3,9
2021-12-11T13:46:40.00Z,33.656761,-117.74640690000001,55.095,0.36,-0.14,0.13,3.116,3.676,0.4,108.37053,25.11321,3,9
2021-12-11T13:46:40.20Z,33.6567617,-117.74640880000001,55.185,0.05,0.02,-0.23,3.061,3.637,0.5,108.37053,25.11499,3,9
2021-12-11T13:46:40.40Z,33.656763999999995,-117.74641650000001,55.098,0.02,-0.2,-0.22,2.963,3.522,0.29,108.37053,25.11607,3,9
2021-12-11T13:46:40.60Z,33.6567663,-117.7464224,55.111,-0.47,0.2,-0.79,2.914,3.483,0.5,122.5546,39.22097,3,9
2021-12-11T13:46:40.80Z,33.6567673,-117.74642490000001,55.287,0.61,-0.22,1.11,2.888,3.47,0.54,49.5915,38.23523,3,8
2021-12-11T13:46:41.00Z,33.6567697,-117.7464289,55.19,0.05,-0.24,-0.43,2.864,3.451,0.41,49.5915,38.23638,3,9
2021-12-11T13:46:41.20Z,33.656770699999996,-117.74643130000001,55.361,-0.01,0.16,0.29,2.852,3.448,0.46,49.5915,38.23747,3,9
2021-12-11T13:46:41.40Z,33.6567718,-117.74643370000001,55.456,0.03,-0.2,0.3,2.841,3.445,0.68,49.5915,38.23908,3,9
2021-12-11T13:46:41.60Z,33.656773599999994,-117.7464372,55.527,0.09,0.01,0.04,2.826,3.441,0.39,49.5915,38.23999,3,9
2021-12-11T13:46:41.80Z,33.6567752,-117.74643970000001,55.646,0.1,-0.02,-0.04,2.808,3.424,0.37,49.5915,38.24086,3,9
2021-12-11T13:46:42.00Z,33.6567775,-117.7464451,55.976,-0.11,0.11,0.15,2.756,3.358,0.34,49.5915,38.24166,3,9
2021-12-11T13:46:42.20Z,33.6567807,-117.7464527,55.895,0.16,-0.12,0.02,2.692,3.236,0.54,49.5915,38.24294,3,9
2021-12-11T13:46:42.40Z,33.656782899999996,-117.74645790000001,55.959,0.03,0.0,0.14,2.649,3.186,0.44,49.5915,38.24398,3,9
2021-12-11T13:46:42.60Z,33.656785,-117.7464621,55.862,-0.11,-0.03,0.15,2.612,3.161,0.42,49.5915,38.24498,3,9
2021-12-11T13:46:42.80Z,33.6567867,-117.746466,55.891,0.1,-0.18,0.16,2.578,3.138,0.57,49.5915,38.24632,3,9
2021-12-11T13:46:43.00Z,33.656788199999994,-117.74646890000001,55.936,0.11,-0.13,0.17,2.547,3.114,0.57,49.5915,38.24765,3,9
2021-12-11T13:46:43.20Z,33.65679,-117.7464721,55.849,0.01,-0.09,0.14,2.52,3.09,0.56,49.5915,38.24896,3,9
2021-12-11T13:46:43.40Z,33.6567909,-117.74647350000001,55.873,0.04,-0.11,0.13,2.506,3.07,0.58,49.5915,38.25032,3,9
2021-12-11T13:46:43.60Z,33.6567931,-117.7464767,55.768,0.13,-0.11,0.05,2.478,3.046,0.47,49.5915,38.25143,3,9
2021-12-11T13:46:43.80Z,33.65679419999999,-117.7464779,55.77,-0.06,0.15,0.05,2.451,3.022,0.39,49.5915,38.25235,3,9
2021-12-11T13:46:44.00Z,33.6567953,-117.74648,55.671,0.0,-0.01,-0.01,2.424,3.0,0.34,49.5915,38.25314,3,9
2021-12-11T13:46:44.20Z,33.656796799999995,-117.7464831,55.499,0.05,0.0,-0.05,2.399,2.977,0.41,49.5915,38.25412,3,9
2021-12-11T13:46:44.40Z,33.6567984,-117.7464867,55.402,0.01,-0.06,0.02,2.369,2.937,0.47,49.5915,38.25523,3,9
2021-12-11T13:46:44.60Z,33.65679969999999,-117.7464896,55.356,-0.01,0.02,-0.1,2.34,2.898,0.45,49.5915,38.25628,3,9
2021-12-11T13:46:44.80Z,33.656801099999996,-117.74649240000001,55.303,0.01,0.02,-0.05,2.311,2.86,0.45,49.5915,38.25734,3,9
2021-12-11T13:46:45.00Z,33.6568026,-117.7464958,55.176,-0.14,0.08,-0.05,2.283,2.823,0.46,49.5915,38.25843,3,9
2021-12-11T13:46:45.20Z,33.6568038,-117.7464977,55.206,0.01,0.09,-0.05,2.242,2.751,0.44,49.5915,38.25946,3,9
2021-12-11T13:46:45.40Z,33.656805199999994,-117.74649930000001,55.278,0.16,-0.05,0.09,2.204,2.686,0.38,49.5915,38.26036,3,9
2021-12-11T13:46:45.60Z,33.656806399999994,-117.7465021,55.107,0.01,-0.01,0.07,2.167,2.624,0.38,49.5915,38.26124,3,9
2021-12-11T13:46:45.80Z,33.65680759999999,-117.7465055,54.874,-0.03,-0.01,0.15,2.132,2.569,0.37,49.5915,38.26212,3,9
2021-12-11T13:46:46.00Z,33.6568081,-117.7465074,54.831,0.01,0.03,0.09,2.101,2.516,0.33,49.5915,38.2629,3,9
2021-12-11T13:46:46.20Z,33.6568093,-117.74650960000001,54.721,0.05,-0.07,0.1,2.07,2.463,0.43,49.5915,38.26391,3,9
2021-12-11T13:46:46.40Z,33.65681,-117.7465111,54.757,0.09,0.04,0.0,2.04,2.415,0.26,49.5915,38.26452,3,9
2021-12-11T13:46:46.60Z,33.656810899999996,-117.74651320000001,54.692,-0.01,-0.07,-0.25,2.02,2.4,0.34,49.5915,38.26532,3,9
2021-12-11T13:46:46.80Z,33.6568113,-117.7465134,54.74,-0.31,0.32,0.11,2.014,2.395,0.5,93.53933,36.77578,3,8
2021-12-11T13:46:47.00Z,33.656812,-117.7465141,54.752,0.17,-0.09,-0.24,2.004,2.392,0.34,93.53933,36.7766,3,9
2021-12-11T13:46:47.20Z,33.656812099999996,-117.74651440000001,54.783,-0.26,0.15,-0.06,1.993,2.392,0.35,93.53933,36.77744,3,9
2021-12-11T13:46:47.40Z,33.6568123,-117.7465147,54.865,0.06,0.0,-0.08,1.97,2.355,0.32,93.53933,36.77822,3,9
2021-12-11T13:46:47.60Z,33.6568124,-117.74651460000001,55.01,-0.02,0.01,0.0,1.954,2.324,0.35,93.53933,36.77909,3,9
2021-12-11T13:46:47.80Z,33.656813,-117.7465153,55.01,-0.07,0.03,-0.04,1.937,2.294,0.39,93.53933,36.78003,3,9
2021-12-11T13:46:48.00Z,33.6568136,-117.7465159,55.045,0.01,-0.06,-0.01,1.92,2.266,0.41,93.53933,36.78104,3,9
2021-12-11T13:46:48.20Z,33.6568141,-117.74651680000001,55.036,0.06,-0.14,0.0,1.904,2.241,0.45,93.53933,36.78215,3,9
2021-12-11T13:46:48.40Z,33.6568146,-117.74651750000001,55.032,0.03,-0.01,-0.02,1.889,2.217,0.39,93.53933,36.7831,3,9
2021-12-11T13:46:48.60Z,33.656814999999995,-117.7465178,55.077,0.11,0.09,-0.04,1.876,2.196,0.4,93.53933,36.78408,3,9
2021-12-11T13:46:48.80Z,33.65681549999999,-117.7465183,55.075,-0.05,0.0,-0.01,1.863,2.175,0.36,93.53933,36.78497,3,9
2021-12-11T13:46:49.00Z,33.6568158,-117.746519,55.065,-0.05,-0.01,-0.05,1.851,2.155,0.33,93.53933,36.78577,3,9
2021-12-11T13:46:49.20Z,33.656816199999994,-117.7465196,55.054,-0.07,0.02,-0.08,1.841,2.139,0.4,93.53933,36.78676,3,9
2021-12-11T13:46:49.40Z,33.6568166,-117.74652,55.082,-0.09,0.13,-0.1,1.831,2.122,0.48,93.53933,36.78794,3,9
2021-12-11T13:46:49.60Z,33.6568168,-117.74652040000001,55.071,-0.01,0.0,-0.04,1.824,2.108,0.38,93.53933,36.78888,3,9
2021-12-11T13:46:49.80Z,33.6568172,-117.7465208,55.1,0.04,0.01,0.09,1.818,2.092,0.35,93.53933,36.78974,3,9
2021-12-11T13:46:50.00Z,33.6568178,-117.7465213,55.119,0.0,-0.05,0.1,1.809,2.076,0.46,93.53933,36.79085,3,9
2021-12-11T13:46:50.20Z,33.6568184,-117.74652180000001,55.137,0.01,-0.04,0.1,1.799,2.061,0.45,93.53933,36.79196,3,9
2021-12-11T13:46:50.40Z,33.656819,-117.7465226,55.114,0.0,-0.15,0.15,1.792,2.048,0.49,93.53933,36.79318,3,9
2021-12-11T13:46:50.60Z,33.6568197,-117.7465233,55.103,0.08,-0.08,0.12,1.786,2.034,0.46,93.53933,36.7943,3,9
2021-12-11T13:46:50.80Z,33.6568204,-117.7465238,55.131,0.1,-0.07,0.09,1.779,2.021,0.44,93.53933,36.79538,3,9
2021-12-11T13:46:51.00Z,33.6568211,-117.7465245,55.129,0.09,-0.03,0.09,1.772,2.009,0.4,93.53933,36.79636,3,9
2021-12-11T13:46:51.20Z,33.656821699999995,-117.74652490000001,55.155,0.04,-0.02,0.02,1.769,2.007,0.43,93.53933,36.79741,3,9
2021-12-11T13:46:51.40Z,33.65682219999999,-117.7465253,55.191,0.0,0.02,0.01,1.767,2.006,0.42,93.53933,36.79845,3,9
2021-12-11T13:46:51.60Z,33.656822899999995,-117.7465258,55.18,-0.01,-0.06,-0.07,1.766,2.006,0.33,93.53933,36.79925,3,9
2021-12-11T13:46:51.80Z,33.6568233,-117.7465262,55.17,-0.13,0.07,-0.06,1.768,2.007,0.45,93.53933,36.80035,3,9
2021-12-11T13:46:52.00Z,33.6568237,-117.7465267,55.143,-0.04,-0.02,-0.04,1.768,2.008,0.32,93.53933,36.80113,3,8
2021-12-11T13:46:52.20Z,33.6568237,-117.74652660000001,55.186,-0.07,0.05,-0.01,1.763,2.005,0.38,93.53933,36.80207,3,9
2021-12-11T13:46:52.40Z,33.656823599999996,-117.74652640000001,55.223,-0.08,0.1,-0.07,1.761,2.007,0.47,93.53933,36.80321,3,9
2021-12-11T13:46:52.60Z,33.6568232,-117.7465255,55.179,0.09,-0.04,-0.05,1.758,2.011,0.25,93.53933,36.80383,3,9
2021-12-11T13:46:52.80Z,33.656823,-117.74652490000001,55.145,0.09,0.07,0.08,1.757,2.019,0.3,93.53933,36.80457,3,9
2021-12-11T13:46:53.00Z,33.6568228,-117.74652420000001,55.135,0.04,-0.05,-0.1,1.757,2.03,0.32,93.53933,36.80536,3,9
2021-12-11T13:46:53.20Z,33.65682219999999,-117.7465233,55.082,-0.09,0.05,-0.07,1.755,2.039,0.42,93.53933,36.80638,3,9
2021-12-11T13:46:53.40Z,33.6568215,-117.7465224,54.987,0.09,0.07,0.34,1.754,2.047,0.39,93.53933,36.80734,3,9
2021-12-11T13:46:53.60Z,33.656821199999996,-117.7465214,54.858,0.16,-0.05,0.16,1.756,2.058,0.43,93.53933,36.80839,3,9
2021-12-11T13:46:53.80Z,33.656821199999996,-117.74652090000001,54.853,0.09,-0.12,0.07,1.758,2.07,0.45,93.53933,36.80948,3,9
2021-12-11T13:46:54.00Z,33.6568211,-117.74652060000001,54.875,-0.01,-0.1,0.04,1.761,2.082,0.47,93.53933,36.81063,3,9
2021-12-11T13:46:54.20Z,33.6568209,-117.74652040000001,54.9,-0.08,-0.05,0.03,1.765,2.095,0.38,93.53933,36.81155,3,9
2021-12-11T13:46:54.40Z,33.656820999999994,-117.7465203,54.895,0.05,0.05,0.01,1.768,2.108,0.35,93.53933,36.8124,3,9
2021-12-11T13:46:54.60Z,33.656820999999994,-117.7465201,54.879,-0.11,0.04,-0.08,1.772,2.122,0.43,93.53933,36.81345,3,9
2021-12-11T13:46:54.80Z,33.656821199999996,-117.7465201,54.89,-0.2,0.17,-0.15,1.777,2.135,0.49,93.53933,36.81463,3,9
2021-12-11T13:46:55.00Z,33.6568216,-117.74652,54.856,-0.11,0.24,0.05,1.774,2.137,0.4,93.53933,36.81561,3,9
2021-12-11T13:46:55.20Z,33.6568223,-117.7465195,54.899,0.25,0.04,-0.23,1.757,2.115,0.34,93.53933,36.81645,3,9
2021-12-11T13:46:55.40Z,33.656823,-117.7465195,54.869,0.06,0.08,0.53,1.761,2.125,0.43,93.53933,36.81777,3,9
2021-12-11T13:46:55.60Z,33.65682339999999,-117.74651920000001,54.869,0.0,0.17,0.02,1.752,2.117,0.36,93.53933,36.81865,3,9
2021-12-11T13:46:55.80Z,33.6568237,-117.7465191,54.875,-0.03,0.05,-0.08,1.745,2.112,0.54,93.53933,36.81996,3,9
2021-12-11T13:46:56.00Z,33.6568235,-117.7465191,54.892,-0.37,-0.01,0.16,1.752,2.129,0.3,93.53933,36.82094,3,9
2021-12-11T13:46:56.20Z,33.656822899999995,-117.7465189,55.028,-0.06,-0.07,-0.12,1.751,2.128,0.32,93.53933,36.82172,3,9
2021-12-11T13:46:56.40Z,33.6568226,-117.7465196,55.017,-0.16,-0.09,-0.18,1.734,2.098,0.29,93.53933,36.82243,3,9
2021-12-11T13:46:56.60Z,33.6568218,-117.7465198,55.1,0.0,-0.07,-0.03,1.718,2.077,0.43,93.53933,36.82347,3,9
2021-12-11T13:46:56.80Z,33.6568215,-117.74652040000001,55.121,0.09,-0.18,0.03,1.713,2.076,0.48,93.53933,36.82466,3,9
2021-12-11T13:46:57.00Z,33.6568207,-117.74652090000001,55.064,-0.08,-0.11,0.01,1.709,2.076,0.32,93.53933,36.82545,3,9
2021-12-11T13:46:57.20Z,33.6568196,-117.7465201,55.111,0.13,-0.11,-0.09,1.702,2.076,0.25,93.53933,36.82605,3,9
2021-12-11T13:46:57.40Z,33.656819299999995,-117.74652,55.06,-0.05,0.14,-0.07,1.692,2.076,0.42,93.53933,36.82708,3,9
2021-12-11T13:46:57.60Z,33.656819,-117.7465198,55.103,-0.01,0.11,-0.05,1.69,2.084,0.49,93.53933,36.82827,3,9
2021-12-11T13:46:57.80Z,33.6568183,-117.7465189,55.186,-0.08,0.13,-0.11,1.688,2.093,0.47,93.53933,36.82943,3,9
2021-12-11T13:46:58.00Z,33.6568183,-117.746519,55.18,-0.02,-0.04,-0.14,1.687,2.1,0.42,93.53933,36.83044,3,9
2021-12-11T13:46:58.20Z,33.656818200000004,-117.7465186,55.157,-0.06,0.06,-0.06,1.678,2.101,0.46,93.53933,36.83156,3,9
2021-12-11T13:46:58.40Z,33.656818200000004,-117.74651820000001,55.143,-0.05,0.03,-0.16,1.67,2.103,0.49,93.53933,36.83276,3,9
2021-12-11T13:46:58.60Z,33.6568177,-117.74651750000001,55.097,0.02,0.05,0.02,1.665,2.105,0.32,93.53933,36.83355,3,9
2021-12-11T13:46:58.80Z,33.6568168,-117.74651610000001,55.165,0.04,0.04,0.14,1.666,2.116,0.52,93.53933,36.83481,3,9
2021-12-11T13:46:59.00Z,33.65681669999999,-117.7465159,55.167,0.01,-0.21,0.2,1.674,2.129,0.56,93.53933,36.83618,3,9
2021-12-11T13:46:59.20Z,33.6568164,-117.7465157,55.136,-0.13,0.15,0.07,1.688,2.146,0.6,93.53933,36.83765,3,9
2021-12-11T13:46:59.40Z,33.6568164,-117.7465154,55.033,-0.15,0.16,0.12,1.698,2.161,0.5,93.53933,36.83886,3,9
2021-12-11T13:46:59.60Z,33.6568164,-117.74651490000001,54.88,-0.03,0.05,0.01,1.704,2.173,0.44,93.53933,36.83994,3,9
2021-12-11T13:46:59.80Z,33.656816,-117.7465143,54.896,-0.04,-0.04,-0.03,1.711,2.186,0.33,93.53933,36.84074,3,9
2021-12-11T13:47:00.00Z,33.656815699999996,-117.74651390000001,54.969,0.03,-0.12,-0.04,1.718,2.199,0.51,93.53933,36.84199,3,9
2021-12-11T13:47:00.20Z,33.6568153,-117.7465133,55.018,0.06,-0.06,0.06,1.727,2.213,0.51,93.53933,36.84324,3,9
2021-12-11T13:47:00.40Z,33.6568151,-117.7465126,55.089,0.04,-0.01,0.07,1.737,2.228,0.53,93.53933,36.84453,3,9
2021-12-11T13:47:00.60Z,33.656814999999995,-117.7465123,55.181,0.01,-0.17,-0.09,1.748,2.243,0.55,93.53933,36.84588,3,9
2021-12-11T13:47:00.80Z,33.6568149,-117.7465119,55.195,0.28,0.07,0.07,1.757,2.253,0.28,93.53933,36.8466,3,9
2021-12-11T13:47:01.00Z,33.6568151,-117.74651180000001,55.172,0.09,-0.24,0.12,1.765,2.265,0.54,93.53933,36.84793,3,9
2021-12-11T13:47:01.20Z,33.65681429999999,-117.7465111,55.277,-0.04,-0.24,0.17,1.774,2.28,0.57,93.53933,36.84934,3,9
2021-12-11T13:47:01.40Z,33.6568137,-117.74651080000001,55.324,0.09,-0.34,0.18,1.783,2.295,0.59,17.55741,40.72218,3,9
2021-12-11T13:47:01.60Z,33.6568137,-117.7465109,55.339,0.12,-0.27,0.08,1.794,2.311,0.56,17.55741,40.72343,3,9
2021-12-11T13:47:01.80Z,33.6568136,-117.7465107,55.384,0.07,-0.1,0.08,1.806,2.329,0.57,17.55741,40.72469,3,9
2021-12-11T13:47:02.00Z,33.6568135,-117.74651010000001,55.404,-0.04,0.25,0.16,1.816,2.34,0.6,17.55741,40.72602,3,9
2021-12-11T13:47:02.20Z,33.6568135,-117.7465092,55.419,-0.16,0.3,0.15,1.828,2.351,0.69,17.55741,40.72754,3,9
2021-12-11T13:47:02.40Z,33.656813299999996,-117.7465083,55.484,-0.05,0.07,-0.1,1.836,2.356,0.54,17.55741,40.72873,3,9
2021-12-11T13:47:02.60Z,33.6568132,-117.7465075,55.545,0.01,0.1,0.07,1.844,2.362,0.58,17.55741,40.73001,3,9
2021-12-11T13:47:02.80Z,33.656813099999994,-117.7465067,55.618,0.05,-0.07,0.15,1.855,2.371,0.56,17.55741,40.73125,3,9
2021-12-11T13:47:03.00Z,33.656813299999996,-117.7465068,55.606,0.0,-0.16,0.03,1.868,2.38,0.59,17.55741,40.73255,3,9
2021-12-11T13:47:03.20Z,33.6568135,-117.7465067,55.578,-0.04,0.06,0.13,1.885,2.394,0.7,17.55741,40.73409,3,8
2021-12-11T13:47:03.40Z,33.6568134,-117.7465061,55.599,0.0,-0.04,0.06,1.897,2.407,0.56,17.55741,40.73534,3,8
2021-12-11T13:47:03.60Z,33.656813799999995,-117.7465067,55.509,-0.12,-0.22,-0.14,1.905,2.415,0.49,17.55741,40.73641,3,9
2021-12-11T13:47:03.80Z,33.6568137,-117.7465062,55.502,-0.07,0.31,0.01,1.913,2.422,0.59,17.55741,40.73772,3,9
2021-12-11T13:47:04.00Z,33.6568137,-117.7465057,55.493,-0.01,-0.02,-0.03,1.922,2.43,0.53,17.55741,40.73889,3,9
2021-12-11T13:47:04.20Z,33.6568139,-117.7465057,55.483,-0.01,0.01,0.01,1.938,2.44,0.66,17.55741,40.74036,3,9
2021-12-11T13:47:04.40Z,33.6568141,-117.7465055,55.526,0.08,-0.15,0.0,1.957,2.448,0.74,17.55741,40.74199,3,9
2021-12-11T13:47:04.60Z,33.65681429999999,-117.7465055,55.54,0.08,-0.04,-0.02,1.976,2.457,0.6,17.55741,40.74332,3,9
2021-12-11T13:47:04.80Z,33.6568144,-117.74650510000001,55.536,0.0,0.07,0.07,1.992,2.468,0.62,17.55741,40.74469,3,9
2021-12-11T13:47:05.00Z,33.656814499999996,-117.7465045,55.523,-0.02,0.09,0.14,2.008,2.473,0.68,17.55741,40.74619,3,9
2021-12-11T13:47:05.20Z,33.65681429999999,-117.7465038,55.498,-0.1,0.13,0.15,2.021,2.475,0.68,17.55741,40.74769,3,9
2021-12-11T13:47:05.40Z,33.656814499999996,-117.74650390000001,55.512,0.17,-0.29,-0.15,2.033,2.48,0.73,17.55741,40.74931,3,9
2021-12-11T13:47:05.60Z,33.6568149,-117.7465044,55.447,0.07,-0.14,0.11,2.043,2.483,0.62,17.55741,40.75068,3,9
2021-12-11T13:47:05.80Z,33.6568147,-117.7465042,55.514,-0.07,-0.25,-0.13,2.048,2.483,0.45,17.55741,40.75168,3,9
2021-12-11T13:47:06.00Z,33.6568149,-117.7465047,55.491,0.02,-0.09,-0.09,2.054,2.489,0.5,17.55741,40.75277,3,9
2021-12-11T13:47:06.20Z,33.656814999999995,-117.74650480000001,55.516,0.07,-0.13,-0.1,2.066,2.502,0.65,17.55741,40.75421,3,9
2021-12-11T13:47:06.40Z,33.6568149,-117.7465047,55.523,-0.16,0.05,0.1,2.076,2.511,0.47,17.55741,40.75525,3,9
2021-12-11T13:47:06.60Z,33.656814499999996,-117.74650390000001,55.573,0.04,0.13,0.23,2.085,2.512,0.51,17.55741,40.75636,3,9
2021-12-11T13:47:06.80Z,33.6568142,-117.7465028,55.527,0.01,-0.06,0.03,2.089,2.518,0.59,17.55741,40.75767,3,9
2021-12-11T13:47:07.00Z,33.6568141,-117.7465019,55.558,-0.17,0.41,-0.2,2.097,2.525,0.62,75.75096,32.20976,3,9
2021-12-11T13:47:07.20Z,33.6568139,-117.7465011,55.557,0.08,0.06,0.09,2.107,2.533,0.43,75.75096,32.21097,3,9
2021-12-11T13:47:07.40Z,33.6568134,-117.74650030000001,55.58,-0.07,-0.12,0.2,2.11,2.544,0.56,75.75096,32.21254,3,9
2021-12-11T13:47:07.60Z,33.6568128,-117.7464996,55.697,0.0,0.08,-0.13,2.111,2.55,0.58,75.75096,32.21417,3,9
2021-12-11T13:47:07.80Z,33.656813,-117.74650000000001,55.671,-0.03,-0.18,-0.04,2.119,2.559,0.56,75.75096,32.21574,3,9
2021-12-11T13:47:08.00Z,33.6568128,-117.7464992,55.742,0.02,0.59,-0.12,2.133,2.57,0.71,81.16729,35.99747,3,9
2021-12-11T13:47:08.20Z,33.6568132,-117.7464994,55.663,-0.12,0.17,-0.04,2.124,2.566,0.49,81.16729,35.9987,3,10
2021-12-11T13:47:08.40Z,33.656813099999994,-117.74649910000001,55.709,-0.13,0.24,0.03,2.111,2.557,0.49,81.16729,35.99992,3,10
2021-12-11T13:47:08.60Z,33.6568132,-117.7464994,55.645,-0.06,0.01,0.04,2.102,2.557,0.36,81.16729,36.00083,3,10
2021-12-11T13:47:08.80Z,33.6568132,-117.7464994,55.686,0.04,-0.04,-0.16,2.091,2.553,0.52,81.16729,36.00212,3,10
2021-12-11T13:47:09.00Z,33.6568136,-117.74649980000001,55.656,0.09,-0.13,-0.04,2.084,2.538,0.46,81.16729,36.00327,3,10
2021-12-11T13:47:09.20Z,33.6568137,-117.7465004,55.592,-0.15,-0.21,0.12,2.075,2.534,0.44,81.16729,36.00438,3,10
2021-12-11T13:47:09.40Z,33.6568139,-117.7465009,55.569,0.24,-0.1,0.1,2.068,2.537,0.51,81.16729,36.00566,3,10
2021-12-11T13:47:09.60Z,33.65681429999999,-117.7465019,55.505,0.24,-0.25,0.15,2.06,2.542,0.6,81.16729,36.00716,3,9
2021-12-11T13:47:09.80Z,33.6568146,-117.7465025,55.634,-0.21,0.17,0.13,2.009,2.519,0.35,81.16729,36.00803,3,9
2021-12-11T13:47:10.00Z,33.6568144,-117.7465023,55.815,-0.02,0.14,-0.27,1.984,2.507,0.54,81.16729,36.00939,3,9
2021-12-11T13:47:10.20Z,33.6568147,-117.7465033,55.842,0.0,-0.11,0.02,1.973,2.502,0.58,81.16729,36.01085,3,9
2021-12-11T13:47:10.40Z,33.6568152,-117.7465047,55.836,0.01,-0.19,0.2,1.967,2.497,0.63,81.16729,36.01243,3,9
2021-12-11T13:47:10.60Z,33.6568154,-117.74650530000001,55.837,0.04,0.09,0.0,1.964,2.491,0.43,81.16729,36.01349,3,9
2021-12-11T13:47:10.80Z,33.656815699999996,-117.7465056,55.873,0.04,-0.03,-0.02,1.963,2.493,0.35,81.16729,36.01438,3,9
2021-12-11T13:47:11.00Z,33.656816,-117.74650600000001,55.877,0.13,-0.05,0.17,1.964,2.5,0.52,81.16729,36.01567,3,9
2021-12-11T13:47:11.20Z,33.6568163,-117.7465062,55.912,0.04,0.04,0.15,1.965,2.503,0.42,81.16729,36.01671,3,9
2021-12-11T13:47:11.40Z,33.6568166,-117.74650630000001,55.936,0.04,0.0,0.07,1.961,2.504,0.46,81.16729,36.01785,3,9
2021-12-11T13:47:11.60Z,33.6568164,-117.7465064,55.977,-0.05,-0.06,0.11,1.959,2.507,0.61,81.16729,36.01936,3,9
2021-12-11T13:47:11.80Z,33.656816,-117.74650630000001,55.983,-0.2,-0.1,0.1,1.958,2.511,0.57,81.16729,36.02078,3,9
2021-12-11T13:47:12.00Z,33.6568159,-117.74650650000001,56.007,-0.05,0.11,-0.05,1.958,2.515,0.63,81.16729,36.02235,3,9
2021-12-11T13:47:12.20Z,33.6568158,-117.7465062,56.011,-0.02,0.07,-0.13,1.958,2.516,0.62,81.16729,36.02389,3,9
2021-12-11T13:47:12.40Z,33.65681549999999,-117.7465056,56.041,0.02,-0.05,0.08,1.956,2.518,0.62,81.16729,36.02545,3,9
2021-12-11T13:47:12.60Z,33.6568159,-117.7465057,55.953,0.08,0.05,0.02,1.957,2.517,0.42,81.16729,36.02649,3,9
2021-12-11T13:47:12.80Z,33.6568164,-117.7465057,55.902,0.09,-0.03,0.1,1.958,2.515,0.49,81.16729,36.02771,3,9
2021-12-11T13:47:13.00Z,33.656816899999995,-117.74650580000001,55.816,0.32,-0.01,0.06,1.958,2.509,0.5,81.16729,36.02896,3,10
2021-12-11T13:47:13.20Z,33.6568172,-117.74650580000001,55.776,0.05,0.01,0.1,1.958,2.503,0.44,81.16729,36.03006,3,10
2021-12-11T13:47:13.40Z,33.6568171,-117.74650510000001,55.736,0.11,-0.06,0.15,1.955,2.496,0.51,81.16729,36.03134,3,9
2021-12-11T13:47:13.60Z,33.656817000000004,-117.74650410000001,55.648,-0.02,-0.02,0.17,1.945,2.474,0.49,81.16729,36.03255,3,10
2021-12-11T13:47:13.80Z,33.656817000000004,-117.74650410000001,55.63,-0.12,-0.06,0.04,1.937,2.462,0.38,81.16729,36.0335,3,9
2021-12-11T13:47:14.00Z,33.65681669999999,-117.74650410000001,55.594,-0.2,-0.11,0.15,1.927,2.45,0.43,81.16729,36.03457,3,9
2021-12-11T13:47:14.20Z,33.6568166,-117.7465037,55.547,0.08,0.02,-0.06,1.917,2.448,0.38,81.16729,36.03551,3,10
2021-12-11T13:47:14.40Z,33.6568164,-117.7465033,55.535,-0.03,-0.15,-0.08,1.906,2.443,0.29,81.16729,36.03623,3,10
2021-12-11T13:47:14.60Z,33.656816,-117.74650270000001,55.564,0.13,-0.02,-0.11,1.896,2.442,0.33,81.16729,36.03705,3,10
2021-12-11T13:47:14.80Z,33.656815699999996,-117.7465025,55.603,-0.08,-0.02,0.13,1.881,2.431,0.42,81.16729,36.03811,3,10
2021-12-11T13:47:15.00Z,33.656815699999996,-117.7465026,55.52,-0.03,0.02,0.06,1.871,2.42,0.33,81.16729,36.03894,3,10
2021-12-11T13:47:15.20Z,33.6568156,-117.746503,55.481,-0.21,-0.25,0.06,1.862,2.408,0.39,81.16729,36.03991,3,10
2021-12-11T13:47:15.40Z,33.6568153,-117.7465033,55.46,-0.17,-0.04,-0.02,1.854,2.402,0.26,81.16729,36.04057,3,10
2021-12-11T13:47:15.60Z,33.6568147,-117.7465032,55.443,-0.33,0.05,-0.03,1.846,2.396,0.27,81.16729,36.04139,3,10
2021-12-11T13:47:15.80Z,33.656813799999995,-117.7465028,55.426,-0.36,0.14,0.11,1.838,2.391,0.27,81.16729,36.04241,3,10
2021-12-11T13:47:16.00Z,33.6568123,-117.7465016,55.385,-0.7,0.26,-0.08,1.829,2.389,0.26,129.51772,28.30948,3,10
2021-12-11T13:47:16.20Z,33.6568111,-117.74650100000001,55.352,-0.47,0.29,-0.11,1.817,2.379,0.33,136.09873,38.65979,3,10
2021-12-11T13:47:16.40Z,33.656810199999995,-117.7465004,55.332,-0.39,0.24,-0.08,1.808,2.372,0.32,141.32373,44.78212,3,10
2021-12-11T13:47:16.60Z,33.6568097,-117.7465004,55.28,-0.34,0.03,-0.02,1.801,2.366,0.28,141.32373,44.78281,3,10
2021-12-11T13:47:16.80Z,33.6568092,-117.7465007,55.217,-0.54,0.12,-0.12,1.793,2.36,0.3,155.63744,41.5343,3,10
2021-12-11T13:47:17.00Z,33.6568086,-117.7465009,55.177,-0.39,0.16,0.08,1.785,2.353,0.29,155.63744,41.53524,3,10
2021-12-11T13:47:17.20Z,33.656808,-117.7465008,55.149,-0.39,0.23,0.13,1.775,2.34,0.3,152.09034,37.84882,3,10
2021-12-11T13:47:17.40Z,33.6568075,-117.7465002,55.12,-0.45,0.43,0.03,1.765,2.328,0.34,141.15818,24.92823,3,10
2021-12-11T13:47:17.60Z,33.656807,-117.7464996,55.067,-0.44,0.41,-0.23,1.754,2.315,0.37,138.89068,25.19199,3,10
2021-12-11T13:47:17.80Z,33.6568068,-117.746499,54.974,-0.37,0.32,-0.09,1.744,2.307,0.34,139.2678,32.56793,3,10
2021-12-11T13:47:18.00Z,33.6568068,-117.74649910000001,54.788,-0.57,0.29,-0.06,1.734,2.299,0.3,147.505,27.21714,3,10
2021-12-11T13:47:18.20Z,33.656806,-117.7464985,54.684,-0.66,0.28,-0.09,1.723,2.289,0.25,152.77833,24.63409,3,10
2021-12-11T13:47:18.40Z,33.6568053,-117.74649810000001,54.614,-0.4,0.22,-0.08,1.708,2.275,0.27,152.45721,31.52554,3,10
2021-12-11T13:47:18.60Z,33.6568046,-117.74649790000001,54.551,-0.28,0.27,0.1,1.693,2.259,0.26,144.20042,31.06598,3,10
2021-12-11T13:47:18.80Z,33.6568043,-117.746498,54.48,-0.33,0.26,0.0,1.685,2.253,0.32,143.49147,37.86114,3,10
2021-12-11T13:47:19.00Z,33.656803499999995,-117.7464977,54.493,-0.28,0.05,-0.01,1.674,2.245,0.23,143.49147,37.86182,3,10
2021-12-11T13:47:19.20Z,33.6568029,-117.7464978,54.485,-0.17,-0.05,-0.01,1.662,2.238,0.18,143.49147,37.86225,3,10
2021-12-11T13:47:19.40Z,33.6568025,-117.7464978,54.462,-0.05,-0.07,0.01,1.649,2.23,0.25,143.49147,37.86285,3,10
2021-12-11T13:47:19.60Z,33.656802,-117.7464977,54.506,-0.03,-0.13,0.12,1.635,2.219,0.41,143.49147,37.86382,3,10
2021-12-11T13:47:19.80Z,33.6568018,-117.7464977,54.525,0.03,-0.05,0.15,1.626,2.211,0.43,143.49147,37.86484,3,10
2021-12-11T13:47:20.00Z,33.6568017,-117.7464975,54.55,0.12,0.1,0.19,1.616,2.2,0.27,143.49147,37.86549,3,10
2021-12-11T13:47:20.20Z,33.6568017,-117.746497,54.594,0.16,0.24,0.09,1.607,2.191,0.21,143.49147,37.86621,3,10
2021-12-11T13:47:20.40Z,33.656801599999994,-117.7464966,54.671,0.12,0.29,0.0,1.601,2.185,0.28,143.49147,37.86695,3,10
2021-12-11T13:47:20.60Z,33.656801599999994,-117.7464963,54.735,0.15,0.34,-0.16,1.596,2.18,0.37,143.49147,37.8679,3,10
2021-12-11T13:47:20.80Z,33.6568015,-117.7464961,54.797,0.0,0.1,-0.09,1.592,2.175,0.45,143.49147,37.86896,3,10
2021-12-11T13:47:21.00Z,33.656801099999996,-117.74649600000001,54.838,-0.01,0.11,0.05,1.587,2.171,0.26,143.49147,37.86957,3,10
2021-12-11T13:47:21.20Z,33.6568007,-117.7464959,54.906,-0.04,-0.03,0.14,1.582,2.167,0.43,143.49147,37.87059,3,10
2021-12-11T13:47:21.40Z,33.6568002,-117.7464959,54.974,-0.05,-0.02,0.04,1.578,2.166,0.3,143.49147,37.87131,3,10
2021-12-11T13:47:21.60Z,33.6567998,-117.7464959,55.036,-0.05,0.06,0.1,1.574,2.164,0.31,143.49147,37.87205,3,10
2021-12-11T13:47:21.80Z,33.6567995,-117.74649570000001,55.117,0.06,0.03,0.03,1.569,2.162,0.2,143.49147,37.87253,3,10
2021-12-11T13:47:22.00Z,33.6567993,-117.74649570000001,55.157,0.05,0.04,0.01,1.566,2.162,0.2,143.49147,37.87301,3,10
2021-12-11T13:47:22.20Z,33.656799199999995,-117.7464956,55.231,0.08,0.09,-0.02,1.562,2.162,0.25,143.49147,37.8736,3,10
2021-12-11T13:47:22.40Z,33.6567989,-117.7464953,55.307,0.13,-0.1,0.12,1.557,2.162,0.39,143.49147,37.87453,3,10
2021-12-11T13:47:22.60Z,33.6567989,-117.7464953,55.365,0.13,-0.12,0.0,1.552,2.157,0.27,143.49147,37.87517,3,10
2021-12-11T13:47:22.80Z,33.6567988,-117.74649550000001,55.413,0.16,-0.38,0.17,1.548,2.157,0.38,249.73259,23.99085,3,10
2021-12-11T13:47:23.00Z,33.6567989,-117.74649620000001,55.436,0.22,-0.56,0.12,1.543,2.154,0.34,278.05768,16.62762,3,10
2021-12-11T13:47:23.20Z,33.656799199999995,-117.74649720000001,55.42,0.29,-0.44,0.24,1.539,2.152,0.38,288.47643,19.84088,3,10
2021-12-11T13:47:23.40Z,33.6567994,-117.7464975,55.462,0.28,-0.28,0.02,1.538,2.154,0.29,293.96506,38.75936,3,10
2021-12-11T13:47:23.60Z,33.65679969999999,-117.746498,55.495,0.22,-0.23,0.08,1.538,2.156,0.37,304.87413,35.87825,3,10
2021-12-11T13:47:23.80Z,33.6568002,-117.7464983,55.508,0.25,-0.02,0.03,1.536,2.155,0.27,304.87413,35.87892,3,10
2021-12-11T13:47:24.00Z,33.65680089999999,-117.7464983,55.515,0.53,0.16,-0.07,1.535,2.155,0.2,342.51074,34.43706,3,10
2021-12-11T13:47:24.20Z,33.656801599999994,-117.74649810000001,55.543,0.39,-0.09,0.02,1.533,2.157,0.24,344.70328,38.76199,3,10
2021-12-11T13:47:24.40Z,33.6568019,-117.74649810000001,55.578,0.13,-0.22,0.18,1.531,2.161,0.43,321.75931,37.84674,3,10
2021-12-11T13:47:24.60Z,33.656802,-117.7464985,55.6,-0.08,-0.31,0.11,1.536,2.171,0.46,321.75931,37.84783,3,10
2021-12-11T13:47:24.80Z,33.656802,-117.7464988,55.626,0.01,-0.17,-0.01,1.545,2.184,0.51,321.75931,37.84903,3,10
2021-12-11T13:47:25.00Z,33.6568018,-117.74649910000001,55.646,-0.13,-0.3,-0.04,1.548,2.193,0.25,321.75931,37.84981,3,10
2021-12-11T13:47:25.20Z,33.656801599999994,-117.7464994,55.66,-0.09,-0.08,-0.19,1.546,2.197,0.34,321.75931,37.85062,3,10
2021-12-11T13:47:25.40Z,33.656801599999994,-117.7464988,55.704,0.23,0.12,0.42,1.543,2.199,0.35,321.75931,37.85179,3,10
2021-12-11T13:47:25.60Z,33.6568019,-117.7464992,55.603,-0.12,-0.02,-0.26,1.539,2.198,0.39,321.75931,37.85272,3,10
2021-12-11T13:47:25.80Z,33.6568017,-117.7464989,55.671,0.07,0.26,-0.12,1.533,2.193,0.37,321.75931,37.85359,3,10
2021-12-11T13:47:26.00Z,33.6568017,-117.74649860000001,55.694,0.16,-0.14,0.3,1.526,2.189,0.43,321.75931,37.85461,3,10
2021-12-11T13:47:26.20Z,33.6568019,-117.7464989,55.637,-0.02,-0.03,0.05,1.521,2.188,0.41,321.75931,37.85557,3,10
2021-12-11T13:47:26.40Z,33.656802,-117.74649860000001,55.651,0.04,0.06,0.11,1.515,2.186,0.31,321.75931,37.85631,3,10
2021-12-11T13:47:26.60Z,33.6568022,-117.74649860000001,55.605,0.05,0.0,0.03,1.51,2.186,0.28,321.75931,37.85697,3,10
2021-12-11T13:47:26.80Z,33.656802299999995,-117.7464982,55.653,0.01,-0.03,0.07,1.506,2.187,0.46,321.75931,37.85805,3,10
2021-12-11T13:47:27.00Z,33.6568022,-117.74649810000001,55.668,-0.03,0.01,0.03,1.505,2.191,0.28,321.75931,37.85872,3,10
2021-12-11T13:47:27.20Z,33.6568021,-117.746498,55.675,-0.01,0.0,0.04,1.504,2.195,0.4,321.75931,37.85967,3,10
2021-12-11T13:47:27.40Z,33.6568021,-117.74649790000001,55.711,-0.02,0.02,-0.13,1.503,2.197,0.46,321.75931,37.86075,3,10
2021-12-11T13:47:27.60Z,33.6568021,-117.7464978,55.727,-0.06,0.12,-0.19,1.501,2.199,0.47,321.75931,37.86187,3,10
2021-12-11T13:47:27.80Z,33.656802,-117.7464975,55.764,-0.07,0.1,-0.18,1.5,2.201,0.47,321.75931,37.86298,3,10
2021-12-11T13:47:28.00Z,33.6568018,-117.74649740000001,55.768,-0.09,-0.01,0.08,1.497,2.201,0.31,321.75931,37.86372,3,10
2021-12-11T13:47:28.20Z,33.656801599999994,-117.7464971,55.819,0.02,-0.07,0.09,1.495,2.202,0.46,321.75931,37.86482,3,10
2021-12-11T13:47:28.40Z,33.6568014,-117.74649690000001,55.86,-0.04,-0.02,-0.01,1.492,2.202,0.18,321.75931,37.86525,3,10
2021-12-11T13:47:28.60Z,33.6568012,-117.7464965,55.932,-0.02,0.0,0.08,1.49,2.201,0.4,321.75931,37.8662,3,10
2021-12-11T13:47:28.80Z,33.656801,-117.7464963,55.961,-0.04,-0.01,-0.09,1.488,2.201,0.39,321.75931,37.86712,3,10
2021-12-11T13:47:29.00Z,33.656801099999996,-117.7464965,55.964,0.04,0.05,-0.06,1.487,2.201,0.4,321.75931,37.86807,3,10
2021-12-11T13:47:29.20Z,33.6568012,-117.74649620000001,56.015,0.11,0.09,0.12,1.487,2.201,0.24,321.75931,37.86865,3,10
2021-12-11T13:47:29.40Z,33.6568013,-117.7464956,56.073,0.07,0.09,0.18,1.486,2.201,0.31,321.75931,37.86939,3,10
2021-12-11T13:47:29.60Z,33.656801599999994,-117.74649500000001,56.105,0.17,0.04,0.13,1.484,2.202,0.28,321.75931,37.87006,3,10
2021-12-11T13:47:29.80Z,33.6568019,-117.7464946,56.107,0.12,0.02,0.07,1.482,2.198,0.26,321.75931,37.87069,3,10
2021-12-11T13:47:30.00Z,33.656802299999995,-117.7464947,56.059,0.02,0.0,0.0,1.481,2.192,0.22,321.75931,37.87121,3,10
2021-12-11T13:47:30.20Z,33.6568027,-117.7464949,56.017,0.01,-0.05,-0.04,1.483,2.186,0.45,321.75931,37.87228,3,10
2021-12-11T13:47:30.40Z,33.6568029,-117.7464953,55.926,-0.1,-0.05,0.07,1.486,2.18,0.29,321.75931,37.87297,3,10
2021-12-11T13:47:30.60Z,33.6568031,-117.74649570000001,55.868,-0.02,-0.21,0.05,1.489,2.173,0.39,321.75931,37.87389,3,10
2021-12-11T13:47:30.80Z,33.6568031,-117.7464956,55.914,-0.07,-0.15,0.11,1.492,2.172,0.36,321.75931,37.87475,3,10
2021-12-11T13:47:31.00Z,33.6568031,-117.74649600000001,55.912,-0.09,-0.13,0.07,1.494,2.169,0.31,321.75931,37.87547,3,10
2021-12-11T13:47:31.20Z,33.6568032,-117.74649670000001,55.88,0.07,-0.25,0.19,1.496,2.167,0.46,306.44553,44.34674,3,10
2021-12-11T13:47:31.40Z,33.6568034,-117.74649720000001,55.874,0.03,-0.06,0.05,1.498,2.167,0.47,306.44553,44.3477,3,10
2021-12-11T13:47:31.60Z,33.656803499999995,-117.7464973,55.896,-0.03,-0.06,0.01,1.5,2.168,0.36,306.44553,44.34843,3,10
2021-12-11T13:47:31.80Z,33.656803499999995,-117.7464975,55.906,-0.07,0.06,-0.21,1.5,2.169,0.45,306.44553,44.34935,3,10
2021-12-11T13:47:32.00Z,33.656803499999995,-117.7464975,55.949,0.05,0.0,-0.19,1.5,2.173,0.44,306.44553,44.35024,3,10
2021-12-11T13:47:32.20Z,33.6568034,-117.74649740000001,55.982,-0.03,0.04,-0.02,1.499,2.177,0.4,306.44553,44.35105,3,10
2021-12-11T13:47:32.40Z,33.6568033,-117.74649720000001,56.02,0.03,0.03,0.02,1.499,2.18,0.26,306.44553,44.35159,3,10
2021-12-11T13:47:32.60Z,33.6568034,-117.74649720000001,56.045,0.03,-0.03,0.03,1.499,2.182,0.45,306.44553,44.3525,3,10
2021-12-11T13:47:32.80Z,33.656803499999995,-117.74649740000001,56.049,0.03,-0.04,-0.02,1.499,2.185,0.29,306.44553,44.3531,3,10
2021-12-11T13:47:33.00Z,33.656803499999995,-117.7464975,56.082,0.0,-0.08,0.07,1.5,2.188,0.5,306.44553,44.35411,3,10
2021-12-11T13:47:33.20Z,33.6568036,-117.7464977,56.087,0.01,-0.07,0.11,1.502,2.191,0.52,306.44553,44.35516,3,10
2021-12-11T13:47:33.40Z,33.6568037,-117.7464978,56.094,0.02,0.0,0.04,1.504,2.192,0.42,306.44553,44.35602,3,10
2021-12-11T13:47:33.60Z,33.6568038,-117.7464978,56.098,0.0,0.01,0.03,1.505,2.194,0.36,306.44553,44.35676,3,10
2021-12-11T13:47:33.80Z,33.6568039,-117.74649810000001,56.069,-0.05,0.07,-0.07,1.505,2.193,0.47,306.44553,44.35772,3,10
2021-12-11T13:47:34.00Z,33.6568039,-117.74649810000001,56.081,-0.02,-0.03,0.11,1.505,2.193,0.47,306.44553,44.35867,3,10
2021-12-11T13:47:34.20Z,33.6568038,-117.74649810000001,56.1,-0.03,-0.04,0.1,1.505,2.195,0.46,306.44553,44.35961,3,10
2021-12-11T13:47:34.40Z,33.6568036,-117.74649810000001,56.093,0.01,-0.02,0.04,1.504,2.196,0.48,306.44553,44.36057,3,10
2021-12-11T13:47:34.60Z,33.656803499999995,-117.746498,56.13,0.08,-0.09,0.03,1.503,2.198,0.35,306.44553,44.36128,3,10
2021-12-11T13:47:34.80Z,33.6568034,-117.74649790000001,56.162,0.01,-0.05,0.04,1.502,2.2,0.46,306.44553,44.36221,3,10
2021-12-11T13:47:35.00Z,33.6568032,-117.74649790000001,56.169,-0.05,-0.01,0.02,1.501,2.202,0.28,306.44553,44.36278,3,10
2021-12-11T13:47:35.20Z,33.6568031,-117.7464978,56.202,-0.03,0.03,-0.1,1.5,2.205,0.47,306.44553,44.36372,3,10
2021-12-11T13:47:35.40Z,33.6568031,-117.7464978,56.222,-0.02,0.13,-0.21,1.5,2.207,0.48,306.44553,44.3647,3,10
2021-12-11T13:47:35.60Z,33.656803,-117.7464978,56.224,-0.03,0.0,-0.12,1.498,2.208,0.43,306.44553,44.36557,3,10
2021-12-11T13:47:35.80Z,33.6568031,-117.746498,56.235,0.09,-0.13,0.12,1.503,2.22,0.52,306.44553,44.36664,3,10
2021-12-11T13:47:36.00Z,33.6568033,-117.74649810000001,56.231,0.02,-0.08,0.12,1.512,2.234,0.58,306.44553,44.36782,3,10
2021-12-11T13:47:36.20Z,33.6568034,-117.7464982,56.229,0.05,-0.06,0.1,1.522,2.248,0.57,306.44553,44.36898,3,10
2021-12-11T13:47:36.40Z,33.6568037,-117.74649840000001,56.217,0.11,-0.08,0.08,1.532,2.263,0.5,306.44553,44.37,3,10
2021-12-11T13:47:36.60Z,33.6568039,-117.7464985,56.231,0.07,-0.09,0.1,1.542,2.279,0.57,306.44553,44.37116,3,10
2021-12-11T13:47:36.80Z,33.6568039,-117.7464987,56.252,0.06,-0.14,0.16,1.542,2.276,0.49,306.44553,44.37215,3,10
2021-12-11T13:47:37.00Z,33.6568039,-117.74649860000001,56.317,0.04,-0.06,0.07,1.537,2.27,0.46,306.44553,44.37308,3,10
2021-12-11T13:47:37.20Z,33.6568039,-117.7464987,56.332,0.02,-0.02,0.07,1.534,2.267,0.46,306.44553,44.37401,3,10
2021-12-11T13:47:37.40Z,33.656803999999994,-117.74649910000001,56.278,-0.01,-0.07,0.03,1.532,2.267,0.4,306.44553,44.37482,3,10
2021-12-11T13:47:37.60Z,33.656804199999996,-117.7464995,56.232,-0.01,0.02,-0.03,1.53,2.267,0.47,306.44553,44.37578,3,10
2021-12-11T13:47:37.80Z,33.6568043,-117.7464995,56.202,-0.02,0.14,-0.08,1.527,2.266,0.42,306.44553,44.37664,3,10
2021-12-11T13:47:38.00Z,33.656804199999996,-117.7464994,56.21,0.0,0.05,0.05,1.525,2.266,0.27,306.44553,44.37718,3,10
2021-12-11T13:47:38.20Z,33.6568041,-117.7464992,56.24,0.04,-0.05,0.06,1.524,2.266,0.44,306.44553,44.37807,3,10
2021-12-11T13:47:38.40Z,33.6568041,-117.7464992,56.237,-0.02,-0.01,0.0,1.522,2.267,0.2,306.44553,44.37847,3,10
2021-12-11T13:47:38.60Z,33.6568039,-117.74649910000001,56.246,-0.01,0.02,0.0,1.52,2.268,0.27,306.44553,44.37902,3,10
2021-12-11T13:47:38.80Z,33.6568037,-117.74649910000001,56.251,0.0,-0.07,0.06,1.519,2.269,0.45,306.44553,44.37993,3,10
2021-12-11T13:47:39.00Z,33.6568036,-117.7464989,56.266,0.01,0.0,0.01,1.518,2.27,0.39,306.44553,44.38073,3,10
2021-12-11T13:47:39.20Z,33.656803499999995,-117.746499,56.248,0.0,0.05,-0.03,1.515,2.27,0.42,306.44553,44.38157,3,10
2021-12-11T13:47:39.40Z,33.6568034,-117.746499,56.238,0.01,-0.02,0.05,1.515,2.273,0.48,306.44553,44.38256,3,10
2021-12-11T13:47:39.60Z,33.6568034,-117.74649910000001,56.217,0.03,-0.05,0.0,1.514,2.274,0.31,306.44553,44.38318,3,10
2021-12-11T13:47:39.80Z,33.6568033,-117.74649930000001,56.194,-0.01,0.02,0.02,1.512,2.275,0.24,306.44553,44.38366,3,10
2021-12-11T13:47:40.00Z,33.6568031,-117.7464994,56.172,-0.1,0.08,-0.12,1.511,2.277,0.42,306.44553,44.38452,3,10
2021-12-11T13:47:40.20Z,33.6568029,-117.74649930000001,56.182,0.01,0.01,-0.07,1.511,2.28,0.45,306.44553,44.38543,3,10
2021-12-11T13:47:40.40Z,33.656802799999994,-117.7464994,56.193,0.03,-0.06,0.03,1.511,2.284,0.39,306.44553,44.38622,3,10
2021-12-11T13:47:40.60Z,33.6568027,-117.7464994,56.2,0.0,-0.03,0.16,1.512,2.287,0.47,306.44553,44.38718,3,10
2021-12-11T13:47:40.80Z,33.6568025,-117.74649930000001,56.2,0.02,-0.04,0.06,1.512,2.29,0.47,306.44553,44.38813,3,10
2021-12-11T13:47:41.00Z,33.656802400000004,-117.7464994,56.187,-0.02,-0.01,0.07,1.512,2.294,0.44,306.44553,44.38903,3,10
2021-12-11T13:47:41.20Z,33.6568022,-117.74649930000001,56.202,0.0,-0.03,0.06,1.513,2.297,0.48,306.44553,44.39001,3,10
2021-12-11T13:47:41.40Z,33.656802,-117.7464994,56.202,-0.01,-0.07,0.05,1.513,2.3,0.43,306.44553,44.39089,3,10
2021-12-11T13:47:41.60Z,33.6568018,-117.74649930000001,56.219,-0.04,0.08,-0.1,1.513,2.302,0.47,306.44553,44.39185,3,10
2021-12-11T13:47:41.80Z,33.656801599999994,-117.7464992,56.222,-0.04,0.11,-0.11,1.513,2.305,0.46,306.44553,44.39279,3,10
2021-12-11T13:47:42.00Z,33.6568014,-117.7464989,56.264,-0.01,0.09,-0.11,1.513,2.308,0.48,306.44553,44.39376,3,10
2021-12-11T13:47:42.20Z,33.656801099999996,-117.7464987,56.284,0.0,-0.02,0.1,1.513,2.311,0.47,306.44553,44.39471,3,10
2021-12-11T13:47:42.40Z,33.65680089999999,-117.74649860000001,56.286,0.01,-0.06,0.06,1.513,2.314,0.47,306.44553,44.39567,3,10
2021-12-11T13:47:42.60Z,33.6568007,-117.7464985,56.29,0.02,-0.03,0.13,1.513,2.317,0.47,306.44553,44.39661,3,10
2021-12-11T13:47:42.80Z,33.6568005,-117.7464983,56.306,0.02,-0.07,0.19,1.514,2.32,0.48,306.44553,44.39759,3,10
2021-12-11T13:47:43.00Z,33.6568003,-117.7464983,56.31,-0.01,0.0,0.0,1.514,2.323,0.24,306.44553,44.39807,3,10
2021-12-11T13:47:43.20Z,33.6568001,-117.7464983,56.302,-0.02,0.12,-0.15,1.514,2.326,0.48,306.44553,44.39904,3,10
2021-12-11T13:47:43.40Z,33.656799899999996,-117.746498,56.354,-0.05,0.02,-0.03,1.514,2.329,0.33,306.44553,44.39972,3,10
2021-12-11T13:47:43.60Z,33.65679969999999,-117.746498,56.37,0.02,-0.07,0.12,1.515,2.331,0.49,306.44553,44.40072,3,10
2021-12-11T13:47:43.80Z,33.6567995,-117.74649790000001,56.395,-0.02,-0.05,0.11,1.517,2.336,0.48,306.44553,44.4017,3,10
2021-12-11T13:47:44.00Z,33.6567993,-117.7464977,56.43,0.01,-0.1,0.13,1.519,2.34,0.49,306.44553,44.40269,3,10
2021-12-11T13:47:44.20Z,33.656799199999995,-117.74649790000001,56.413,0.05,-0.13,0.2,1.521,2.345,0.49,306.44553,44.40368,3,10
2021-12-11T13:47:44.40Z,33.6567991,-117.746498,56.382,-0.02,-0.01,0.04,1.523,2.349,0.43,306.44553,44.40457,3,10
2021-12-11T13:47:44.60Z,33.656799,-117.74649790000001,56.409,-0.06,0.0,-0.02,1.525,2.353,0.26,306.44553,44.4051,3,10
2021-12-11T13:47:44.80Z,33.6567988,-117.7464977,56.443,0.01,0.05,-0.13,1.527,2.356,0.49,306.44553,44.40609,3,10
2021-12-11T13:47:45.00Z,33.656798699999996,-117.74649740000001,56.509,0.05,-0.1,0.1,1.529,2.361,0.48,306.44553,44.40705,3,10
2021-12-11T13:47:45.20Z,33.6567986,-117.74649720000001,56.556,0.03,-0.04,-0.02,1.531,2.365,0.26,306.44553,44.40759,3,10
2021-12-11T13:47:45.40Z,33.656798499999994,-117.746497,56.59,-0.01,-0.05,0.06,1.532,2.368,0.49,306.44553,44.40859,3,10
2021-12-11T13:47:45.60Z,33.6567984,-117.746497,56.606,-0.02,0.0,-0.01,1.535,2.374,0.32,306.44553,44.40924,3,10
2021-12-11T13:47:45.80Z,33.6567984,-117.74649690000001,56.618,-0.05,0.09,-0.15,1.538,2.379,0.52,306.44553,44.4103,3,10
2021-12-11T13:47:46.00Z,33.6567983,-117.7464966,56.664,0.03,0.03,-0.03,1.541,2.383,0.41,306.44553,44.41113,3,10
2021-12-11T13:47:46.20Z,33.6567982,-117.7464965,56.669,0.0,0.04,-0.08,1.542,2.388,0.51,306.44553,44.41216,3,10
2021-12-11T13:47:46.40Z,33.6567981,-117.7464963,56.676,-0.02,0.09,-0.03,1.544,2.392,0.42,306.44553,44.413,3,10
2021-12-11T13:47:46.60Z,33.6567981,-117.7464963,56.66,0.02,0.02,0.06,1.545,2.395,0.35,306.44553,44.41372,3,10
2021-12-11T13:47:46.80Z,33.6567981,-117.7464963,56.652,0.05,-0.05,0.09,1.546,2.399,0.47,306.44553,44.41467,3,10
2021-12-11T13:47:47.00Z,33.6567981,-117.74649620000001,56.666,0.0,0.01,0.07,1.547,2.402,0.42,306.44553,44.41552,3,10
2021-12-11T13:47:47.20Z,33.6567983,-117.7464961,56.656,0.08,0.01,0.16,1.555,2.415,0.51,306.44553,44.41655,3,10
2021-12-11T13:47:47.40Z,33.656798499999994,-117.74649620000001,56.643,0.06,-0.06,0.13,1.566,2.43,0.59,306.44553,44.41776,3,10
2021-12-11T13:47:47.60Z,33.6567986,-117.7464963,56.623,0.03,-0.06,0.07,1.578,2.446,0.62,306.44553,44.41901,3,10
2021-12-11T13:47:47.80Z,33.6567983,-117.7464964,56.717,-0.16,-0.49,0.08,1.59,2.462,0.56,278.20199,42.45824,3,10
2021-12-11T13:47:48.00Z,33.6567986,-117.74649690000001,56.65,0.03,0.35,-0.15,1.603,2.479,0.63,278.20199,42.45958,3,10
2021-12-11T13:47:48.20Z,33.656798699999996,-117.7464966,56.659,-0.01,0.07,-0.03,1.616,2.496,0.63,278.20199,42.46092,3,10
2021-12-11T13:47:48.40Z,33.656798699999996,-117.7464965,56.687,0.02,-0.08,0.04,1.629,2.514,0.65,278.20199,42.4623,3,10
2021-12-11T13:47:48.60Z,33.6567988,-117.7464964,56.695,0.04,-0.02,0.18,1.641,2.532,0.63,278.20199,42.46363,3,10
2021-12-11T13:47:48.80Z,33.6567988,-117.7464964,56.705,0.04,-0.19,0.2,1.652,2.547,0.64,278.20199,42.46499,3,10
2021-12-11T13:47:49.00Z,33.656798699999996,-117.7464964,56.724,0.01,-0.07,0.22,1.662,2.563,0.64,278.20199,42.46635,3,10
2021-12-11T13:47:49.20Z,33.6567988,-117.7464963,56.71,0.03,-0.03,0.18,1.673,2.578,0.63,278.20199,42.46768,3,10
2021-12-11T13:47:49.40Z,33.6567989,-117.7464964,56.712,0.11,-0.14,0.11,1.683,2.593,0.58,278.20199,42.4689,3,10
2021-12-11T13:47:49.60Z,33.656799,-117.7464963,56.756,0.07,-0.02,0.04,1.693,2.608,0.42,278.20199,42.4698,3,10
2021-12-11T13:47:49.80Z,33.656799199999995,-117.7464963,56.73,0.0,0.0,0.0,1.703,2.625,0.41,278.20199,42.47067,3,10
2021-12-11T13:47:50.00Z,33.6567993,-117.7464963,56.712,-0.04,0.11,-0.01,1.713,2.64,0.52,278.20199,42.47178,3,10
2021-12-11T13:47:50.20Z,33.6567994,-117.7464961,56.73,0.04,0.05,-0.11,1.722,2.654,0.63,278.20199,42.47311,3,10
2021-12-11T13:47:50.40Z,33.6567994,-117.7464959,56.756,0.01,0.03,0.01,1.731,2.668,0.42,278.20199,42.47401,3,10
2021-12-11T13:47:50.60Z,33.6567996,-117.7464958,56.774,0.07,0.0,-0.05,1.74,2.681,0.44,278.20199,42.47493,3,10
2021-12-11T13:47:50.80Z,33.65679969999999,-117.74649570000001,56.788,-0.03,0.09,-0.17,1.749,2.694,0.65,278.20199,42.4763,3,10
2021-12-11T13:47:51.00Z,33.6567996,-117.7464954,56.808,-0.01,0.01,-0.01,1.756,2.707,0.56,278.20199,42.4775,3,10
2021-12-11T13:47:51.20Z,33.6567996,-117.7464952,56.788,-0.05,0.12,-0.08,1.759,2.713,0.53,278.20199,42.47862,3,10
2021-12-11T13:47:51.40Z,33.6567995,-117.74649480000001,56.799,0.04,0.07,-0.05,1.761,2.719,0.51,278.20199,42.4797,3,10
2021-12-11T13:47:51.60Z,33.6567994,-117.74649450000001,56.815,0.05,-0.02,0.09,1.763,2.725,0.53,278.20199,42.48081,3,10
2021-12-11T13:47:51.80Z,33.6567995,-117.7464944,56.809,-0.04,0.05,-0.03,1.769,2.734,0.52,278.20199,42.48192,3,10
2021-12-11T13:47:52.00Z,33.6567996,-117.74649450000001,56.795,0.06,-0.02,-0.17,1.774,2.741,0.53,278.20199,42.48305,3,10
2021-12-11T13:47:52.20Z,33.65679969999999,-117.7464944,56.81,0.01,-0.08,0.06,1.779,2.748,0.58,278.20199,42.48428,3,10
2021-12-11T13:47:52.40Z,33.6567996,-117.7464942,56.839,0.09,-0.07,0.15,1.783,2.756,0.56,278.20199,42.48546,3,10
2021-12-11T13:47:52.60Z,33.6567996,-117.7464942,56.849,0.07,-0.12,0.23,1.787,2.762,0.59,278.20199,42.4867,3,10
2021-12-11T13:47:52.80Z,33.6567995,-117.7464941,56.868,0.0,-0.11,0.27,1.791,2.769,0.61,278.20199,42.48798,3,10
2021-12-11T13:47:53.00Z,33.6567994,-117.7464939,56.913,0.09,-0.04,0.12,1.795,2.774,0.51,278.20199,42.48907,3,10
2021-12-11T13:47:53.20Z,33.6567994,-117.7464939,56.93,0.03,-0.04,0.04,1.799,2.777,0.56,278.20199,42.49025,3,10
2021-12-11T13:47:53.40Z,33.6567993,-117.7464937,56.974,0.06,-0.03,0.06,1.801,2.78,0.47,278.20199,42.49125,3,10
2021-12-11T13:47:53.60Z,33.6567994,-117.74649380000001,56.967,0.03,-0.05,0.11,1.803,2.784,0.58,278.20199,42.49247,3,10
2021-12-11T13:47:53.80Z,33.6567993,-117.74649360000001,57.004,0.01,-0.06,0.09,1.807,2.788,0.6,278.20199,42.49374,3,10
2021-12-11T13:47:54.00Z,33.6567995,-117.7464937,56.984,0.02,0.06,-0.03,1.811,2.795,0.56,278.20199,42.49492,3,10
2021-12-11T13:47:54.20Z,33.6567996,-117.7464937,56.994,-0.04,-0.06,-0.05,1.816,2.8,0.32,278.20199,42.49559,3,10
2021-12-11T13:47:54.40Z,33.6567996,-117.7464937,56.971,-0.01,0.07,0.01,1.819,2.807,0.44,278.20199,42.49652,3,10
2021-12-11T13:47:54.60Z,33.65679969999999,-117.7464935,56.97,0.0,0.05,0.01,1.823,2.811,0.38,278.20199,42.49733,3,10
2021-12-11T13:47:54.80Z,33.6567998,-117.74649360000001,56.946,-0.01,-0.05,0.07,1.827,2.816,0.6,278.20199,42.49861,3,10
2021-12-11T13:47:55.00Z,33.6567998,-117.74649380000001,56.941,0.01,-0.17,0.05,1.83,2.819,0.51,278.20199,42.49969,3,10
2021-12-11T13:47:55.20Z,33.656799899999996,-117.746494,56.922,0.06,0.02,0.03,1.831,2.82,0.29,278.20199,42.5003,3,10
2021-12-11T13:47:55.40Z,33.6568001,-117.7464941,56.849,-0.02,0.0,0.07,1.833,2.823,0.55,278.20199,42.50146,3,10
2021-12-11T13:47:55.60Z,33.6568,-117.7464941,56.831,-0.05,-0.01,0.14,1.836,2.828,0.55,278.20199,42.50263,3,10
2021-12-11T13:47:55.80Z,33.6568001,-117.7464942,56.801,0.03,-0.05,0.03,1.839,2.831,0.54,278.20199,42.50377,3,10
2021-12-11T13:47:56.00Z,33.6568002,-117.7464944,56.778,-0.01,-0.05,-0.01,1.841,2.833,0.39,278.20199,42.5046,3,10
2021-12-11T13:47:56.20Z,33.656800399999995,-117.7464946,56.732,-0.02,0.21,-0.15,1.844,2.834,0.57,278.20199,42.5058,3,10
2021-12-11T13:47:56.40Z,33.6568006,-117.74649450000001,56.713,0.04,-0.03,-0.04,1.846,2.835,0.33,278.20199,42.5065,3,10
2021-12-11T13:47:56.60Z,33.656800399999995,-117.7464942,56.784,0.02,-0.09,0.02,1.846,2.836,0.44,278.20199,42.50744,3,10
2021-12-11T13:47:56.80Z,33.6568003,-117.74649380000001,56.831,0.04,0.0,-0.01,1.845,2.836,0.27,278.20199,42.50802,3,10
2021-12-11T13:47:57.00Z,33.6568005,-117.7464937,56.819,-0.02,0.1,0.09,1.847,2.838,0.34,278.20199,42.50875,3,10
2021-12-11T13:47:57.20Z,33.6568006,-117.7464937,56.811,0.05,-0.05,0.01,1.85,2.84,0.42,278.20199,42.50964,3,10
2021-12-11T13:47:57.40Z,33.6568008,-117.74649380000001,56.805,0.04,-0.01,0.01,1.853,2.843,0.37,278.20199,42.51041,3,10
2021-12-11T13:47:57.60Z,33.656801099999996,-117.7464939,56.768,-0.03,0.05,-0.01,1.856,2.846,0.48,278.20199,42.51142,3,10
2021-12-11T13:47:57.80Z,33.656801099999996,-117.7464937,56.76,-0.05,0.04,0.0,1.858,2.85,0.37,278.20199,42.51221,3,10
2021-12-11T13:47:58.00Z,33.656801099999996,-117.7464935,56.788,0.0,0.03,-0.01,1.86,2.852,0.48,278.20199,42.51323,3,10
2021-12-11T13:47:58.20Z,33.6568017,-117.74649380000001,56.673,0.15,0.2,0.09,1.863,2.856,0.36,278.20199,42.51398,3,10
2021-12-11T13:47:58.40Z,33.6568018,-117.74649330000001,56.706,0.02,-0.05,0.17,1.868,2.863,0.61,278.20199,42.51528,3,10
2021-12-11T13:47:58.60Z,33.6568019,-117.74649330000001,56.703,0.09,-0.03,0.16,1.872,2.871,0.54,278.20199,42.51642,3,10
2021-12-11T13:47:58.80Z,33.6568021,-117.74649330000001,56.688,0.06,-0.07,0.11,1.877,2.877,0.58,278.20199,42.51765,3,10
2021-12-11T13:47:59.00Z,33.6568022,-117.7464932,56.686,0.05,0.0,0.07,1.881,2.884,0.49,278.20199,42.5187,3,10
2021-12-11T13:47:59.20Z,33.656802400000004,-117.74649330000001,56.666,-0.02,0.06,-0.06,1.884,2.89,0.61,278.20199,42.51998,3,10
2021-12-11T13:47:59.40Z,33.656802299999995,-117.7464932,56.69,-0.03,0.0,0.07,1.888,2.895,0.52,278.20199,42.52109,3,10
2021-12-11T13:47:59.60Z,33.656802299999995,-117.74649310000001,56.727,0.02,0.06,-0.11,1.891,2.9,0.61,278.20199,42.52238,3,10
2021-12-11T13:47:59.80Z,33.6568021,-117.7464927,56.819,0.05,-0.01,0.06,1.894,2.904,0.46,278.20199,42.52335,3,10
2021-12-11T13:48:00.00Z,33.6568021,-117.7464925,56.868,0.05,-0.01,0.07,1.897,2.908,0.49,278.20199,42.52439,3,10
2021-12-11T13:48:00.20Z,33.6568021,-117.74649240000001,56.884,0.06,-0.06,0.1,1.9,2.914,0.57,278.20199,42.5256,3,10
2021-12-11T13:48:00.40Z,33.656802,-117.7464922,56.956,0.04,-0.07,0.08,1.903,2.919,0.59,278.20199,42.52685,3,10
2021-12-11T13:48:00.60Z,33.6568019,-117.74649190000001,57.006,-0.01,0.01,0.06,1.907,2.925,0.56,278.20199,42.52803,3,10
2021-12-11T13:48:00.80Z,33.6568017,-117.7464917,57.029,-0.04,0.06,0.08,1.91,2.932,0.47,278.20199,42.52902,3,10
2021-12-11T13:48:01.00Z,33.6568017,-117.74649140000001,57.07,0.05,-0.07,0.02,1.914,2.939,0.49,278.20199,42.53006,3,10
2021-12-11T13:48:01.20Z,33.656801599999994,-117.74649140000001,57.087,0.01,0.0,0.04,1.902,2.915,0.47,278.20199,42.53106,3,10
2021-12-11T13:48:01.40Z,33.6568017,-117.7464915,57.062,0.0,0.01,0.09,1.887,2.889,0.44,278.20199,42.53199,3,10
2021-12-11T13:48:01.60Z,33.6568019,-117.74649210000001,56.958,0.03,-0.08,0.09,1.872,2.866,0.49,278.20199,42.53304,3,10
2021-12-11T13:48:01.80Z,33.6568019,-117.74649210000001,56.951,-0.03,0.02,0.06,1.858,2.844,0.37,278.20199,42.53382,3,10
2021-12-11T13:48:02.00Z,33.6568021,-117.7464925,56.925,0.07,-0.11,0.12,1.85,2.828,0.51,278.20199,42.53489,3,10
2021-12-11T13:48:02.20Z,33.6568022,-117.7464925,56.962,0.02,-0.01,0.02,1.843,2.813,0.39,278.20199,42.53572,3,10
2021-12-11T13:48:02.40Z,33.6568025,-117.74649260000001,56.952,0.02,0.08,-0.02,1.84,2.806,0.51,278.20199,42.53681,3,10
2021-12-11T13:48:02.60Z,33.6568025,-117.7464927,56.958,-0.07,-0.06,-0.01,1.837,2.799,0.35,278.20199,42.53755,3,10
2021-12-11T13:48:02.80Z,33.6568026,-117.746493,56.957,0.04,-0.03,0.03,1.834,2.792,0.48,278.20199,42.53856,3,10
2021-12-11T13:48:03.00Z,33.6568027,-117.7464928,56.999,-0.01,0.15,-0.2,1.83,2.785,0.56,278.20199,42.53975,3,10
2021-12-11T13:48:03.20Z,33.6568027,-117.74649260000001,57.071,-0.06,0.01,-0.1,1.827,2.777,0.44,278.20199,42.54069,3,10
2021-12-11T13:48:03.40Z,33.6568027,-117.74649260000001,57.095,-0.05,0.01,-0.08,1.822,2.768,0.42,278.20199,42.54158,3,10
2021-12-11T13:48:03.60Z,33.656802799999994,-117.7464925,57.117,-0.04,0.09,-0.13,1.818,2.759,0.53,278.20199,42.54271,3,10
2021-12-11T13:48:03.80Z,33.6568029,-117.74649240000001,57.13,-0.04,0.09,-0.21,1.813,2.751,0.53,278.20199,42.54383,3,9
2021-12-11T13:48:04.00Z,33.656802799999994,-117.7464923,57.165,-0.08,0.01,-0.13,1.808,2.74,0.41,278.20199,42.5447,3,9
2021-12-11T13:48:04.20Z,33.6568027,-117.746492,57.219,-0.01,0.0,-0.03,1.802,2.73,0.44,278.20199,42.54562,3,9
2021-12-11T13:48:04.40Z,33.6568026,-117.74649190000001,57.242,0.03,-0.03,0.04,1.796,2.72,0.46,278.20199,42.54661,3,9
2021-12-11T13:48:04.60Z,33.6568025,-117.7464916,57.284,0.02,0.05,-0.02,1.791,2.711,0.5,278.20199,42.54766,3,9
2021-12-11T13:48:04.80Z,33.656802400000004,-117.74649120000001,57.331,0.04,0.03,0.11,1.785,2.701,0.38,278.20199,42.54846,3,9
2021-12-11T13:48:05.00Z,33.656802400000004,-117.746491,57.339,0.02,0.0,-0.01,1.779,2.692,0.36,278.20199,42.54922,3,9
2021-12-11T13:48:05.20Z,33.656802299999995,-117.7464908,57.362,0.03,0.03,-0.07,1.774,2.683,0.49,278.20199,42.55026,3,9
2021-12-11T13:48:05.40Z,33.6568025,-117.7464909,57.327,0.03,-0.01,-0.06,1.768,2.674,0.41,278.20199,42.55112,3,9
2021-12-11T13:48:05.60Z,33.6568027,-117.7464911,57.277,0.06,0.0,0.04,1.763,2.665,0.33,278.20199,42.55181,3,9
2021-12-11T13:48:05.80Z,33.656802799999994,-117.7464911,57.243,0.05,0.05,0.05,1.759,2.658,0.3,278.20199,42.55244,3,9
2021-12-11T13:48:06.00Z,33.656802799999994,-117.746491,57.241,0.01,0.02,0.05,1.756,2.652,0.37,278.20199,42.55322,3,9
2021-12-11T13:48:06.20Z,33.6568027,-117.7464906,57.27,-0.03,0.02,0.07,1.752,2.645,0.4,278.20199,42.55406,3,9
2021-12-11T13:48:06.40Z,33.6568026,-117.7464904,57.278,0.02,0.03,0.03,1.749,2.638,0.3,278.20199,42.55469,3,9
2021-12-11T13:48:06.60Z,33.6568027,-117.7464903,57.274,-0.02,0.0,-0.05,1.745,2.632,0.42,278.20199,42.55558,3,9
2021-12-11T13:48:06.80Z,33.6568025,-117.74649000000001,57.32,-0.03,-0.05,-0.06,1.736,2.617,0.3,278.20199,42.55622,3,9
2021-12-11T13:48:07.00Z,33.6568022,-117.7464898,57.363,-0.04,0.0,0.02,1.725,2.602,0.33,278.20199,42.55693,3,9
2021-12-11T13:48:07.20Z,33.6568021,-117.7464896,57.385,0.08,0.04,0.01,1.715,2.587,0.3,278.20199,42.55758,3,9
2021-12-11T13:48:07.40Z,33.6568021,-117.7464894,57.407,0.03,0.02,0.09,1.709,2.576,0.38,278.20199,42.55838,3,9
2021-12-11T13:48:07.60Z,33.656802,-117.7464891,57.436,0.04,0.03,0.06,1.703,2.566,0.31,278.20199,42.55903,3,9
2021-12-11T13:48:07.80Z,33.6568018,-117.7464889,57.47,0.04,-0.01,0.08,1.696,2.554,0.41,278.20199,42.55991,3,9
2021-12-11T13:48:08.00Z,33.656801599999994,-117.7464887,57.489,-0.01,-0.05,0.1,1.691,2.547,0.5,278.20199,42.56096,3,9
2021-12-11T13:48:08.20Z,33.6568014,-117.7464887,57.491,0.01,-0.07,0.06,1.686,2.539,0.5,278.20199,42.56201,3,9
2021-12-11T13:48:08.40Z,33.6568014,-117.74648880000001,57.47,0.06,-0.02,0.06,1.681,2.531,0.39,278.20199,42.56283,3,9
2021-12-11T13:48:08.60Z,33.6568013,-117.7464887,57.472,-0.01,-0.05,0.09,1.677,2.525,0.51,278.20199,42.5639,3,9
2021-12-11T13:48:08.80Z,33.656801099999996,-117.7464885,57.484,0.0,0.03,0.01,1.674,2.518,0.34,278.20199,42.56463,3,9
2021-12-11T13:48:09.00Z,33.656801,-117.74648830000001,57.508,0.03,0.07,-0.07,1.67,2.511,0.5,278.20199,42.56568,3,9
2021-12-11T13:48:09.20Z,33.656801,-117.74648830000001,57.539,-0.04,0.01,-0.08,1.666,2.503,0.42,278.20199,42.56657,3,10
2021-12-11T13:48:09.40Z,33.65680089999999,-117.7464882,57.54,-0.06,0.1,-0.13,1.663,2.496,0.49,278.20199,42.5676,3,10
2021-12-11T13:48:09.60Z,33.6568008,-117.746488,57.565,0.01,0.01,0.01,1.66,2.488,0.29,278.20199,42.56821,3,10
2021-12-11T13:48:09.80Z,33.6568007,-117.7464879,57.585,-0.05,-0.03,0.01,1.656,2.481,0.36,278.20199,42.56897,3,10
2021-12-11T13:48:10.00Z,33.6568006,-117.7464877,57.587,-0.08,0.0,-0.03,1.653,2.475,0.28,278.20199,42.56956,3,10
2021-12-11T13:48:10.20Z,33.6568003,-117.7464873,57.62,-0.02,0.01,0.03,1.649,2.469,0.32,278.20199,42.57024,3,10
2021-12-11T13:48:10.40Z,33.6568001,-117.746487,57.631,-0.01,0.01,-0.09,1.645,2.464,0.46,278.20199,42.5712,3,10
2021-12-11T13:48:10.60Z,33.6568,-117.7464867,57.669,0.03,-0.01,-0.03,1.642,2.459,0.33,278.20199,42.57189,3,10
2021-12-11T13:48:10.80Z,33.6568001,-117.74648660000001,57.682,0.02,-0.06,0.09,1.64,2.455,0.51,278.20199,42.57296,3,10
2021-12-11T13:48:11.00Z,33.6568001,-117.74648640000001,57.672,0.06,0.01,0.1,1.637,2.451,0.38,278.20199,42.57376,3,10
2021-12-11T13:48:11.20Z,33.6568001,-117.7464862,57.674,0.07,-0.03,0.16,1.634,2.447,0.44,278.20199,42.57469,3,10
2021-12-11T13:48:11.40Z,33.6568001,-117.7464862,57.666,0.03,-0.1,0.15,1.631,2.442,0.5,278.20199,42.57574,3,10
2021-12-11T13:48:11.60Z,33.6568001,-117.7464862,57.671,0.06,-0.05,0.16,1.628,2.438,0.47,278.20199,42.57674,3,10
2021-12-11T13:48:11.80Z,33.6568001,-117.7464861,57.69,0.05,-0.02,0.08,1.626,2.434,0.43,278.20199,42.57765,3,10
2021-12-11T13:48:12.00Z,33.6568001,-117.7464861,57.691,0.02,0.06,0.05,1.625,2.431,0.29,278.20199,42.57826,3,10
2021-12-11T13:48:12.20Z,33.6568001,-117.746486,57.691,-0.02,0.04,0.03,1.623,2.427,0.29,278.20199,42.57889,3,10
2021-12-11T13:48:12.40Z,33.6568001,-117.74648590000001,57.685,0.01,0.01,0.0,1.621,2.423,0.31,278.20199,42.57954,3,9
2021-12-11T13:48:12.60Z,33.6568,-117.74648590000001,57.699,-0.07,0.09,-0.09,1.619,2.419,0.47,278.20199,42.58053,3,9
2021-12-11T13:48:12.80Z,33.656799899999996,-117.7464858,57.701,-0.02,0.03,-0.08,1.617,2.416,0.48,278.20199,42.58154,3,9
2021-12-11T13:48:13.00Z,33.656799899999996,-117.746486,57.693,-0.01,-0.02,-0.01,1.615,2.412,0.32,278.20199,42.58221,3,9
2021-12-11T13:48:13.20Z,33.656799899999996,-117.7464861,57.688,0.08,-0.04,0.06,1.614,2.408,0.39,278.20199,42.58303,3,9
2021-12-11T13:48:13.40Z,33.6567998,-117.7464861,57.725,0.03,-0.04,0.02,1.611,2.404,0.44,278.20199,42.58396,3,9
2021-12-11T13:48:13.60Z,33.6567998,-117.7464865,57.695,-0.11,-0.11,0.17,1.613,2.406,0.48,278.20199,42.58498,3,9
2021-12-11T13:48:13.80Z,33.65679969999999,-117.74648710000001,57.66,-0.03,-0.2,0.05,1.614,2.405,0.48,278.20199,42.58599,3,9
2021-12-11T13:48:14.00Z,33.6567996,-117.74648760000001,57.628,-0.01,-0.03,0.05,1.615,2.401,0.49,278.20199,42.58701,3,9
2021-12-11T13:48:14.20Z,33.65679969999999,-117.7464882,57.565,0.02,-0.05,0.05,1.616,2.396,0.51,278.20199,42.58808,3,9
2021-12-11T13:48:14.40Z,33.6567998,-117.7464887,57.496,0.06,-0.04,-0.02,1.616,2.391,0.39,278.20199,42.58892,3,9
2021-12-11T13:48:14.60Z,33.6567995,-117.74648900000001,57.508,0.04,-0.04,0.02,1.612,2.381,0.43,278.20199,42.58981,3,9
2021-12-11T13:48:14.80Z,33.6567993,-117.74648950000001,57.468,-0.02,-0.01,0.03,1.608,2.373,0.39,278.20199,42.59064,3,9
2021-12-11T13:48:15.00Z,33.6567989,-117.7464896,57.467,0.0,0.04,0.12,1.603,2.363,0.45,278.20199,42.59159,3,9
2021-12-11T13:48:15.20Z,33.6567989,-117.74649020000001,57.366,-0.02,0.09,0.09,1.598,2.35,0.37,278.20199,42.59237,3,9
2021-12-11T13:48:15.40Z,33.6567988,-117.7464909,57.276,-0.02,-0.06,-0.06,1.589,2.334,0.26,278.20199,42.59292,3,9
2021-12-11T13:48:15.60Z,33.6567986,-117.7464913,57.235,0.03,0.01,-0.05,1.58,2.317,0.36,278.20199,42.59369,3,9
2021-12-11T13:48:15.80Z,33.656798499999994,-117.7464915,57.197,0.11,0.16,-0.04,1.574,2.305,0.3,278.20199,42.59433,3,9
2021-12-11T13:48:16.00Z,33.656798699999996,-117.74649120000001,57.106,0.25,0.26,-0.01,1.568,2.295,0.3,340.44163,43.60061,3,9
2021-12-11T13:48:16.20Z,33.6567989,-117.74649070000001,57.08,0.14,0.31,-0.15,1.566,2.289,0.42,340.44163,43.60148,3,9
2021-12-11T13:48:16.40Z,33.656798699999996,-117.74649000000001,57.109,0.14,0.1,0.06,1.561,2.283,0.22,340.44163,43.60192,3,9
2021-12-11T13:48:16.60Z,33.6567981,-117.7464896,57.15,0.05,-0.03,0.06,1.553,2.274,0.39,340.44163,43.60272,3,9
2021-12-11T13:48:16.80Z,33.656797499999996,-117.74648950000001,57.189,-0.03,-0.05,0.12,1.546,2.266,0.44,340.44163,43.60363,3,10
2021-12-11T13:48:17.00Z,33.656796799999995,-117.7464894,57.22,-0.07,-0.04,-0.01,1.539,2.259,0.16,340.44163,43.60397,3,10
2021-12-11T13:48:17.20Z,33.656796099999994,-117.7464892,57.245,-0.12,-0.03,0.0,1.534,2.254,0.19,340.44163,43.60438,3,10
2021-12-11T13:48:17.40Z,33.6567954,-117.7464889,57.287,-0.07,-0.07,0.12,1.53,2.251,0.41,340.44163,43.60523,3,10
2021-12-11T13:48:17.60Z,33.6567948,-117.7464886,57.34,-0.15,0.0,-0.21,1.527,2.251,0.37,340.44163,43.606,3,10
2021-12-11T13:48:17.80Z,33.65679419999999,-117.7464887,57.35,-0.03,-0.18,0.08,1.524,2.25,0.38,340.44163,43.60679,3,10
2021-12-11T13:48:18.00Z,33.6567938,-117.74648900000001,57.329,-0.1,-0.05,-0.26,1.517,2.242,0.37,340.44163,43.60756,3,10
2021-12-11T13:48:18.20Z,33.6567935,-117.7464894,57.284,-0.1,0.11,-0.37,1.51,2.233,0.43,340.44163,43.60845,3,10
2021-12-11T13:48:18.40Z,33.656793199999996,-117.74648930000001,57.268,0.22,-0.06,0.29,1.504,2.225,0.38,340.44163,43.60922,3,10
2021-12-11T13:48:18.60Z,33.656793199999996,-117.7464897,57.18,0.12,-0.14,0.2,1.496,2.216,0.41,340.44163,43.61006,3,10
2021-12-11T13:48:18.80Z,33.6567929,-117.74649000000001,57.128,0.05,-0.09,0.07,1.489,2.207,0.39,340.44163,43.61087,3,10
2021-12-11T13:48:19.00Z,33.656792499999995,-117.7464898,57.161,-0.01,-0.05,-0.02,1.485,2.204,0.2,340.44163,43.61129,3,10
2021-12-11T13:48:19.20Z,33.656791999999996,-117.7464896,57.197,0.02,-0.08,0.14,1.479,2.2,0.44,340.44163,43.61221,3,10
2021-12-11T13:48:19.40Z,33.6567916,-117.74648930000001,57.212,0.0,-0.01,0.06,1.475,2.198,0.46,340.44163,43.61315,3,10
2021-12-11T13:48:19.60Z,33.6567912,-117.7464889,57.267,-0.03,0.03,0.01,1.47,2.194,0.25,340.44163,43.61367,3,10
2021-12-11T13:48:19.80Z,33.656790799999996,-117.7464887,57.287,-0.02,0.04,-0.08,1.465,2.188,0.44,340.44163,43.61457,3,10
2021-12-11T13:48:20.00Z,33.6567905,-117.7464884,57.323,0.02,0.04,-0.04,1.459,2.183,0.39,340.44163,43.61537,3,10
2021-12-11T13:48:20.20Z,33.6567903,-117.74648830000001,57.331,0.02,0.03,-0.05,1.454,2.177,0.4,340.44163,43.6162,3,10
2021-12-11T13:48:20.40Z,33.65679,-117.74648810000001,57.368,0.01,-0.04,0.04,1.449,2.171,0.41,340.44163,43.61704,3,10
2021-12-11T13:48:20.60Z,33.6567898,-117.746488,57.364,0.0,-0.02,0.12,1.444,2.167,0.42,340.44163,43.61791,3,10
2021-12-11T13:48:20.80Z,33.6567895,-117.7464879,57.363,0.02,-0.02,0.06,1.44,2.162,0.43,340.44163,43.6188,3,10
2021-12-11T13:48:21.00Z,33.6567892,-117.7464877,57.402,-0.03,0.03,-0.01,1.435,2.158,0.31,340.44163,43.61944,3,10
2021-12-11T13:48:21.20Z,33.656788899999995,-117.7464872,57.463,-0.02,0.05,-0.03,1.431,2.154,0.39,340.44163,43.62023,3,10
2021-12-11T13:48:21.40Z,33.6567887,-117.746487,57.467,-0.08,0.07,-0.03,1.429,2.152,0.32,340.44163,43.62089,3,10
2021-12-11T13:48:21.60Z,33.656788399999996,-117.746487,57.437,-0.01,0.02,0.03,1.424,2.145,0.29,340.44163,43.62149,3,10
2021-12-11T13:48:21.80Z,33.656788,-117.7464868,57.449,-0.05,0.02,0.01,1.418,2.138,0.21,340.44163,43.62193,3,10
2021-12-11T13:48:22.00Z,33.656787699999995,-117.7464868,57.427,-0.05,0.05,-0.01,1.413,2.131,0.3,340.44163,43.62255,3,10
2021-12-11T13:48:22.20Z,33.6567874,-117.7464868,57.398,-0.03,0.01,-0.02,1.408,2.125,0.34,340.44163,43.62325,3,10
2021-12-11T13:48:22.40Z,33.6567872,-117.746487,57.357,0.01,-0.04,-0.09,1.405,2.121,0.33,340.44163,43.62394,3,10
2021-12-11T13:48:22.60Z,33.6567869,-117.74648710000001,57.356,-0.02,-0.05,0.05,1.401,2.118,0.39,340.44163,43.62474,3,10
2021-12-11T13:48:22.80Z,33.6567867,-117.74648710000001,57.347,0.01,-0.06,0.06,1.398,2.115,0.42,340.44163,43.6256,3,10
2021-12-11T13:48:23.00Z,33.656786499999995,-117.74648710000001,57.345,-0.02,-0.04,0.04,1.395,2.112,0.4,340.44163,43.62642,3,10
2021-12-11T13:48:23.20Z,33.65678629999999,-117.74648690000001,57.36,-0.05,0.03,-0.04,1.392,2.109,0.34,340.44163,43.62712,3,10
2021-12-11T13:48:23.40Z,33.6567861,-117.7464868,57.381,0.02,0.0,0.02,1.39,2.106,0.29,340.44163,43.62771,3,10
2021-12-11T13:48:23.60Z,33.656786,-117.74648660000001,57.382,-0.01,0.03,0.03,1.387,2.104,0.34,340.44163,43.62842,3,10
2021-12-11T13:48:23.80Z,33.6567857,-117.74648640000001,57.414,-0.02,-0.02,0.06,1.384,2.101,0.4,340.44163,43.62925,3,10
2021-12-11T13:48:24.00Z,33.6567855,-117.7464861,57.428,-0.01,-0.02,0.16,1.382,2.099,0.43,340.44163,43.63013,3,10
2021-12-11T13:48:24.20Z,33.6567852,-117.7464858,57.472,-0.02,-0.07,0.07,1.38,2.098,0.41,340.44163,43.63097,3,10
2021-12-11T13:48:24.40Z,33.6567849,-117.7464856,57.511,0.0,-0.07,0.12,1.378,2.098,0.45,340.44163,43.6319,3,10
2021-12-11T13:48:24.60Z,33.6567847,-117.74648540000001,57.528,-0.03,-0.01,0.04,1.377,2.098,0.36,340.44163,43.63263,3,10
2021-12-11T13:48:24.80Z,33.6567844,-117.746485,57.594,0.01,-0.02,0.12,1.376,2.098,0.43,340.44163,43.63353,3,10
2021-12-11T13:48:25.00Z,33.6567843,-117.7464848,57.623,-0.02,0.07,-0.11,1.375,2.099,0.44,340.44163,43.63444,3,10
2021-12-11T13:48:25.20Z,33.656784,-117.7464844,57.682,-0.04,0.02,-0.03,1.374,2.1,0.36,340.44163,43.63518,3,10
2021-12-11T13:48:25.40Z,33.65678389999999,-117.7464842,57.714,0.02,0.02,-0.09,1.374,2.101,0.42,340.44163,43.63605,3,10
2021-12-11T13:48:25.60Z,33.65678389999999,-117.7464842,57.726,-0.01,0.05,-0.09,1.375,2.104,0.47,340.44163,43.63703,3,10
2021-12-11T13:48:25.80Z,33.6567838,-117.7464841,57.746,0.03,0.01,-0.02,1.375,2.106,0.3,340.44163,43.63765,3,10
2021-12-11T13:48:26.00Z,33.6567838,-117.7464839,57.761,0.03,-0.01,0.05,1.38,2.115,0.47,340.44163,43.63863,3,10
2021-12-11T13:48:26.20Z,33.656784,-117.74648380000001,57.767,0.07,-0.03,0.15,1.388,2.126,0.49,340.44163,43.63964,3,11
2021-12-11T13:48:26.40Z,33.656784099999996,-117.7464837,57.782,0.06,-0.1,0.21,1.396,2.137,0.54,340.44163,43.64076,3,11
2021-12-11T13:48:26.60Z,33.6567842,-117.7464836,57.792,0.05,-0.12,0.21,1.404,2.148,0.56,340.44163,43.64192,3,11
2021-12-11T13:48:26.80Z,33.6567843,-117.74648350000001,57.802,0.01,-0.05,0.2,1.412,2.161,0.57,340.44163,43.64309,3,11
2021-12-11T13:48:27.00Z,33.6567842,-117.7464832,57.842,0.06,-0.05,0.23,1.42,2.172,0.55,340.44163,43.64421,3,11
2021-12-11T13:48:27.20Z,33.6567842,-117.746483,57.868,0.03,-0.07,0.27,1.426,2.183,0.55,340.44163,43.64535,3,11
2021-12-11T13:48:27.40Z,33.6567842,-117.74648280000001,57.89,0.11,-0.08,0.2,1.433,2.195,0.51,340.44163,43.64641,3,11
2021-12-11T13:48:27.60Z,33.6567843,-117.74648260000001,57.935,0.07,-0.15,0.21,1.439,2.205,0.55,340.44163,43.64753,3,11
2021-12-11T13:48:27.80Z,33.6567843,-117.74648260000001,57.951,0.01,-0.02,0.12,1.445,2.214,0.53,340.44163,43.64863,3,11
2021-12-11T13:48:28.00Z,33.6567843,-117.7464824,57.997,-0.02,-0.06,-0.04,1.451,2.224,0.33,340.44163,43.64931,3,11
2021-12-11T13:48:28.20Z,33.6567843,-117.74648230000001,58.024,0.0,0.0,-0.02,1.457,2.234,0.5,340.44163,43.65033,3,11
2021-12-11T13:48:28.40Z,33.6567842,-117.74648210000001,58.036,-0.02,0.01,-0.04,1.462,2.243,0.49,340.44163,43.65135,3,11
2021-12-11T13:48:28.60Z,33.656784099999996,-117.7464822,58.001,-0.06,0.03,-0.1,1.462,2.244,0.46,340.44163,43.6523,3,11
2021-12-11T13:48:28.80Z,33.656784099999996,-117.7464822,57.966,0.03,0.05,0.02,1.462,2.244,0.27,340.44163,43.65286,3,11
2021-12-11T13:48:29.00Z,33.6567842,-117.7464824,57.904,0.04,0.04,-0.1,1.461,2.243,0.46,340.44163,43.65382,3,11
2021-12-11T13:48:29.20Z,33.6567843,-117.7464825,57.867,0.07,-0.07,0.08,1.462,2.245,0.43,340.44163,43.65471,3,11
2021-12-11T13:48:29.40Z,33.6567844,-117.7464827,57.806,0.0,-0.05,0.13,1.463,2.249,0.51,340.44163,43.65575,3,11
2021-12-11T13:48:29.60Z,33.6567843,-117.7464827,57.799,0.01,-0.02,0.13,1.464,2.252,0.5,340.44163,43.65679,3,11
2021-12-11T13:48:29.80Z,33.6567842,-117.74648260000001,57.799,0.01,-0.04,0.18,1.467,2.257,0.52,340.44163,43.65785,3,11
2021-12-11T13:48:30.00Z,33.6567842,-117.74648260000001,57.791,0.05,-0.06,0.16,1.47,2.262,0.51,340.44163,43.6589,3,11
2021-12-11T13:48:30.20Z,33.6567843,-117.7464827,57.768,0.04,0.02,0.15,1.473,2.266,0.47,340.44163,43.65986,3,11
2021-12-11T13:48:30.40Z,33.6567845,-117.7464825,57.769,0.1,0.09,0.02,1.476,2.27,0.23,340.44163,43.66033,3,11
2021-12-11T13:48:30.60Z,33.6567845,-117.7464825,57.783,-0.01,-0.1,0.11,1.479,2.275,0.49,340.44163,43.66135,3,11
2021-12-11T13:48:30.80Z,33.6567844,-117.74648260000001,57.768,-0.05,-0.16,0.17,1.481,2.279,0.47,340.44163,43.66233,3,11
2021-12-11T13:48:31.00Z,33.6567843,-117.7464829,57.734,-0.14,-0.08,0.01,1.483,2.283,0.22,340.44163,43.66279,3,11
2021-12-11T13:48:31.20Z,33.656784099999996,-117.7464829,57.746,-0.05,0.03,-0.02,1.484,2.288,0.35,340.44163,43.66352,3,11
2021-12-11T13:48:31.40Z,33.656784,-117.7464827,57.737,-0.09,0.11,0.06,1.487,2.294,0.35,340.44163,43.66424,3,11
2021-12-11T13:48:31.60Z,33.656784,-117.7464825,57.722,0.01,0.04,-0.05,1.489,2.3,0.49,340.44163,43.66525,3,11
2021-12-11T13:48:31.80Z,33.6567842,-117.74648260000001,57.717,0.04,-0.03,0.05,1.493,2.308,0.48,340.44163,43.66625,3,11
2021-12-11T13:48:32.00Z,33.6567843,-117.7464825,57.72,0.03,-0.02,0.04,1.497,2.316,0.49,340.44163,43.66726,3,11
2021-12-11T13:48:32.20Z,33.6567843,-117.7464824,57.734,-0.03,0.08,-0.03,1.5,2.323,0.42,340.44163,43.66813,3,11
2021-12-11T13:48:32.40Z,33.6567843,-117.74648230000001,57.731,0.0,0.03,0.02,1.503,2.329,0.31,340.44163,43.66878,3,11
2021-12-11T13:48:32.60Z,33.6567844,-117.74648230000001,57.718,-0.01,0.08,-0.09,1.506,2.335,0.52,340.44163,43.66984,3,11
2021-12-11T13:48:32.80Z,33.6567844,-117.74648210000001,57.755,0.04,0.04,-0.02,1.508,2.34,0.36,340.44163,43.67057,3,11
2021-12-11T13:48:33.00Z,33.6567843,-117.7464818,57.838,0.03,-0.01,0.06,1.51,2.345,0.47,340.44163,43.67155,3,11
2021-12-11T13:48:33.20Z,33.6567843,-117.7464817,57.859,-0.02,-0.03,-0.03,1.511,2.348,0.27,340.44163,43.67211,3,11
2021-12-11T13:48:33.40Z,33.656784099999996,-117.7464815,57.912,0.03,-0.12,0.15,1.513,2.352,0.5,340.44163,43.67315,3,11
2021-12-11T13:48:33.60Z,33.656784,-117.74648140000001,57.949,-0.07,-0.04,0.16,1.514,2.356,0.47,340.44163,43.67412,3,11
2021-12-11T13:48:33.80Z,33.65678389999999,-117.7464813,57.934,-0.09,0.05,0.02,1.519,2.364,0.36,340.44163,43.67486,3,11
2021-12-11T13:48:34.00Z,33.6567838,-117.7464813,57.911,-0.02,0.01,0.02,1.523,2.372,0.39,340.44163,43.67566,3,11
2021-12-11T13:48:34.20Z,33.6567837,-117.7464812,57.901,-0.09,-0.07,0.09,1.525,2.379,0.43,340.44163,43.67654,3,11
2021-12-11T13:48:34.40Z,33.6567835,-117.7464812,57.889,-0.26,0.12,-0.2,1.528,2.385,0.41,340.44163,43.67739,3,11
2021-12-11T13:48:34.60Z,33.6567832,-117.7464812,57.832,-0.33,0.28,-0.15,1.53,2.386,0.41,75.69034,35.68429,3,11
2021-12-11T13:48:34.80Z,33.6567826,-117.7464808,57.807,-0.45,0.36,-0.07,1.533,2.388,0.41,115.74372,28.75147,3,11
2021-12-11T13:48:35.00Z,33.656781699999996,-117.7464798,57.752,-0.76,0.87,0.12,1.539,2.395,0.41,128.77057,12.73613,3,11
2021-12-11T13:48:35.20Z,33.656779900000004,-117.7464774,57.818,-0.91,0.96,0.08,1.542,2.402,0.31,131.4421,11.5452,3,11
2021-12-11T13:48:35.40Z,33.6567782,-117.7464755,57.791,-1.0,0.82,0.08,1.546,2.409,0.33,135.62317,12.65273,3,10
2021-12-11T13:48:35.60Z,33.6567759,-117.7464733,57.804,-1.41,1.08,0.18,1.551,2.42,0.32,139.95215,9.63308,3,10
2021-12-11T13:48:35.80Z,33.6567734,-117.74647080000001,57.802,-1.32,1.24,-0.12,1.556,2.429,0.34,138.28977,9.17273,3,10
2021-12-11T13:48:36.00Z,33.656770699999996,-117.74646820000001,57.772,-1.4,1.18,0.34,1.565,2.447,0.35,138.77991,14.55418,3,10
2021-12-11T13:48:36.20Z,33.6567684,-117.74646580000001,57.696,-1.03,0.89,0.64,1.575,2.463,0.38,138.96917,16.84264,3,10
2021-12-11T13:48:36.40Z,33.6567666,-117.74646390000001,57.633,-1.13,0.82,0.12,1.585,2.483,0.33,141.17949,19.3558,3,11
2021-12-11T13:48:36.60Z,33.656765199999995,-117.7464623,57.63,-0.32,0.41,0.13,1.597,2.504,0.36,141.17949,19.35829,3,11
2021-12-11T13:48:36.80Z,33.6567647,-117.74646080000001,57.74,-0.18,0.44,-0.23,1.609,2.526,0.57,141.17949,19.36094,3,11
2021-12-11T13:48:37.00Z,33.6567646,-117.74645960000001,57.878,0.5,0.03,0.03,1.622,2.548,0.32,141.17949,19.36326,3,11
2021-12-11T13:48:37.20Z,33.6567649,-117.7464592,57.823,-0.16,0.28,0.27,1.635,2.572,0.43,141.17949,19.36526,3,11
2021-12-11T13:48:37.40Z,33.656765199999995,-117.7464585,57.75,-0.01,0.4,-0.18,1.65,2.597,0.62,141.17949,19.36813,3,11
2021-12-11T13:48:37.60Z,33.6567649,-117.7464575,57.703,-0.45,0.48,0.2,1.664,2.623,0.36,139.56298,39.26487,3,11
2021-12-11T13:48:37.80Z,33.6567635,-117.7464561,57.823,-1.05,0.39,-0.42,1.678,2.647,0.41,154.04641,23.83368,3,11
2021-12-11T13:48:38.00Z,33.6567617,-117.7464552,57.851,-0.74,0.27,0.03,1.694,2.675,0.34,155.52936,40.81512,3,11
2021-12-11T13:48:38.20Z,33.6567601,-117.7464545,57.842,-1.23,0.27,-0.02,1.689,2.66,0.24,166.08496,15.41214,3,11
2021-12-11T13:48:38.40Z,33.6567576,-117.746453,57.987,-0.79,0.26,0.56,1.676,2.627,0.26,164.3941,20.21604,3,12
2021-12-11T13:48:38.60Z,33.6567556,-117.74645220000001,58.056,-1.07,0.03,-0.09,1.661,2.591,0.22,172.64523,16.50383,3,12
2021-12-11T13:48:38.80Z,33.656754,-117.74645240000001,57.944,-0.89,0.18,0.34,1.655,2.578,0.23,170.78422,18.52476,3,12
2021-12-11T13:48:39.00Z,33.6567526,-117.746452,57.838,-1.03,0.36,0.15,1.648,2.563,0.23,164.42454,14.4529,3,12
2021-12-11T13:48:39.20Z,33.6567507,-117.7464506,57.888,-0.88,0.46,0.38,1.64,2.546,0.23,157.57625,12.89328,3,12
2021-12-11T13:48:39.40Z,33.6567492,-117.7464501,57.754,-1.27,0.51,-0.18,1.636,2.54,0.26,157.84517,10.53852,3,12
2021-12-11T13:48:39.60Z,33.6567473,-117.7464491,57.711,-1.21,0.65,-0.03,1.628,2.525,0.26,154.54583,9.56632,3,12
2021-12-11T13:48:39.80Z,33.656745,-117.74644810000001,57.697,-1.84,0.63,-0.56,1.626,2.521,0.29,158.45602,7.73411,3,12
2021-12-11T13:48:40.00Z,33.656742699999995,-117.74644710000001,57.695,-1.09,0.54,0.03,1.623,2.517,0.25,156.87697,11.04262,3,12
2021-12-11T13:48:40.20Z,33.6567405,-117.7464459,57.691,-1.52,0.64,-0.1,1.62,2.511,0.26,156.92136,9.82505,3,12
2021-12-11T13:48:40.40Z,33.6567383,-117.7464447,57.694,-1.13,0.54,-0.06,1.616,2.502,0.26,155.85986,10.854,3,12
2021-12-11T13:48:40.60Z,33.6567366,-117.74644380000001,57.599,-1.2,0.8,-0.1,1.611,2.49,0.28,149.79549,8.33404,3,12
2021-12-11T13:48:40.80Z,33.656735299999994,-117.74644280000001,57.461,-0.93,0.77,0.07,1.604,2.478,0.26,145.48256,9.20491,3,12
2021-12-11T13:48:41.00Z,33.656733599999995,-117.74644140000001,57.388,-1.34,0.86,-0.01,1.599,2.467,0.26,146.5986,7.67183,3,12
2021-12-11T13:48:41.20Z,33.6567321,-117.7464401,57.272,-1.04,0.83,-0.13,1.594,2.456,0.29,144.2844,8.50057,3,12
2021-12-11T13:48:41.40Z,33.6567306,-117.7464381,57.204,-0.98,1.17,0.33,1.591,2.451,0.25,135.19854,6.44274,3,12
2021-12-11T13:48:41.60Z,33.656729,-117.74643610000001,57.16,-0.93,1.18,-0.18,1.586,2.44,0.31,131.44144,5.95371,3,12
2021-12-11T13:48:41.80Z,33.656727599999996,-117.7464339,57.087,-0.92,1.22,0.28,1.581,2.431,0.26,129.16231,5.73161,3,12
2021-12-11T13:48:42.00Z,33.6567261,-117.7464317,57.012,-1.22,1.26,-0.27,1.579,2.428,0.31,131.63087,5.62221,3,12
2021-12-11T13:48:42.20Z,33.6567249,-117.7464298,56.834,-0.56,1.16,0.74,1.578,2.427,0.25,125.66517,7.2827,3,12
2021-12-11T13:48:42.40Z,33.656723799999995,-117.7464271,56.681,-1.13,1.66,0.13,1.578,2.428,0.29,124.66439,4.39091,3,12
2021-12-11T13:48:42.60Z,33.6567224,-117.74642440000001,56.606,-0.8,1.32,-0.08,1.578,2.427,0.33,123.28377,5.5618,3,12
2021-12-11T13:48:42.80Z,33.6567213,-117.74642150000001,56.568,-0.58,1.45,0.31,1.578,2.427,0.29,118.00078,6.02141,3,12
2021-12-11T13:48:43.00Z,33.6567203,-117.74641840000001,56.58,-0.64,1.51,-0.17,1.576,2.423,0.34,115.35345,5.66219,3,12
2021-12-11T13:48:43.20Z,33.656719499999994,-117.7464159,56.483,-0.43,1.25,0.31,1.574,2.418,0.33,112.66959,6.57177,3,12
2021-12-11T13:48:43.40Z,33.6567188,-117.7464133,56.383,-0.65,1.71,-0.02,1.572,2.414,0.32,111.39123,5.10225,3,12
2021-12-11T13:48:43.60Z,33.6567181,-117.7464107,56.302,-0.34,1.26,0.07,1.569,2.408,0.3,109.37516,7.32707,3,12
2021-12-11T13:48:43.80Z,33.6567175,-117.7464085,56.102,-0.74,1.74,0.12,1.566,2.401,0.32,112.02168,4.52071,3,12
2021-12-11T13:48:44.00Z,33.6567167,-117.7464053,56.054,-0.32,1.73,-0.13,1.563,2.395,0.33,107.66226,5.78606,3,12
2021-12-11T13:48:44.20Z,33.656716,-117.7464023,55.955,-0.5,1.67,0.29,1.563,2.394,0.34,107.09789,5.71438,3,12
2021-12-11T13:48:44.40Z,33.6567153,-117.7463985,55.911,-0.43,2.33,-0.27,1.559,2.387,0.33,102.74216,4.11288,3,12
2021-12-11T13:48:44.60Z,33.656715,-117.7463944,55.871,-0.03,2.0,-0.11,1.556,2.38,0.32,98.52499,5.57937,3,12
2021-12-11T13:48:44.80Z,33.6567149,-117.7463906,55.76,-0.26,2.19,0.21,1.554,2.375,0.33,97.52369,4.6814,3,12
2021-12-11T13:48:45.00Z,33.6567146,-117.74638610000001,55.699,-0.22,2.42,0.01,1.551,2.369,0.33,96.12352,4.06313,3,12
2021-12-11T13:48:45.20Z,33.6567144,-117.7463816,55.668,-0.1,2.05,0.03,1.549,2.364,0.32,94.79019,4.98137,3,12
2021-12-11T13:48:45.40Z,33.6567144,-117.7463774,55.601,0.05,2.28,0.14,1.548,2.361,0.33,92.16415,5.62794,3,12
2021-12-11T13:48:45.60Z,33.6567145,-117.7463728,55.583,-0.02,2.23,0.01,1.546,2.358,0.33,91.38786,5.60273,3,12
2021-12-11T13:48:45.80Z,33.6567146,-117.746369,55.47,-0.16,2.19,-0.01,1.544,2.351,0.37,92.70259,5.94351,3,12
2021-12-11T13:48:46.00Z,33.6567146,-117.7463645,55.457,0.19,2.32,-0.01,1.543,2.345,0.34,89.30263,6.53554,3,12
2021-12-11T13:48:46.20Z,33.656715,-117.74636050000001,55.422,0.18,1.85,-0.03,1.539,2.332,0.34,87.35439,8.13931,3,12
2021-12-11T13:48:46.40Z,33.656715199999994,-117.7463565,55.382,0.0,2.13,0.07,1.538,2.326,0.38,88.98387,6.63913,3,12
2021-12-11T13:48:46.60Z,33.6567156,-117.7463527,55.237,0.2,2.22,-0.03,1.533,2.312,0.31,86.38831,5.27025,3,12
2021-12-11T13:48:46.80Z,33.6567157,-117.7463487,55.144,-0.08,1.8,0.23,1.527,2.299,0.33,89.40477,5.53848,3,12
2021-12-11T13:48:47.00Z,33.656715899999995,-117.74634710000001,54.628,-0.24,2.27,0.0,1.502,2.24,0.33,93.63903,4.10926,3,12
2021-12-11T13:48:47.20Z,33.6567163,-117.746345,54.205,0.04,2.07,-0.11,1.48,2.185,0.3,91.79243,5.0827,3,12
2021-12-11T13:48:47.40Z,33.65671639999999,-117.7463422,53.937,-0.23,2.05,0.11,1.471,2.161,0.32,94.37647,4.49048,3,12
2021-12-11T13:48:47.60Z,33.6567161,-117.74633920000001,53.708,-0.48,2.31,-0.24,1.462,2.139,0.32,98.94941,3.6161,3,12
2021-12-11T13:48:47.80Z,33.6567157,-117.74633610000001,53.513,-0.2,1.74,0.07,1.454,2.119,0.33,98.22223,5.30366,3,12
2021-12-11T13:48:48.00Z,33.656715399999996,-117.746333,53.288,-0.28,1.91,0.51,1.448,2.101,0.33,98.27801,5.05357,3,12
2021-12-11T13:48:48.20Z,33.6567149,-117.7463304,52.932,-0.52,1.96,0.11,1.432,2.06,0.33,101.96971,4.4352,3,12
2021-12-11T13:48:48.40Z,33.6567141,-117.7463271,52.803,-0.66,1.85,0.23,1.432,2.052,0.45,105.04018,5.46278,3,11
2021-12-11T13:48:48.60Z,33.656712799999994,-117.7463231,52.766,-0.78,2.14,-0.06,1.432,2.046,0.38,108.10704,4.28193,3,11
2021-12-11T13:48:48.80Z,33.6567114,-117.7463194,52.663,-0.77,1.68,0.23,1.428,2.031,0.35,110.9963,4.74521,3,12
2021-12-11T13:48:49.00Z,33.65671,-117.7463161,52.52,-0.96,1.97,0.13,1.423,2.017,0.38,113.85091,4.13809,3,12
2021-12-11T13:48:49.20Z,33.6567082,-117.74631190000001,52.531,-0.96,2.07,-0.43,1.416,2.003,0.33,114.39482,3.88947,3,12
2021-12-11T13:48:49.40Z,33.656706299999996,-117.7463079,52.588,-1.07,1.78,0.06,1.421,2.006,0.49,116.64309,5.52533,3,12
2021-12-11T13:48:49.60Z,33.656704399999995,-117.74630400000001,52.613,-1.07,2.11,-0.17,1.43,2.015,0.52,116.72426,5.00649,3,12
2021-12-11T13:48:49.80Z,33.6567027,-117.74629970000001,52.647,-0.89,1.91,-0.14,1.432,2.019,0.36,115.78625,4.20443,3,12
2021-12-11T13:48:50.00Z,33.6567012,-117.7462959,52.633,-0.89,1.9,0.33,1.433,2.021,0.32,115.38889,4.42932,3,12
2021-12-11T13:48:50.20Z,33.6566995,-117.7462916,52.696,-0.94,1.71,-0.08,1.433,2.016,0.41,116.96322,4.90878,3,12
2021-12-11T13:48:50.40Z,33.6566978,-117.74628840000001,52.613,-1.01,1.77,0.25,1.435,2.013,0.44,118.3262,4.95048,3,12
2021-12-11T13:48:50.60Z,33.6566957,-117.74628440000001,52.557,-1.26,2.07,0.02,1.436,2.009,0.37,120.07299,4.00155,3,12
2021-12-11T13:48:50.80Z,33.6566933,-117.7462802,52.579,-1.25,1.77,-0.02,1.435,2.006,0.37,122.40348,4.48506,3,11
2021-12-11T13:48:51.00Z,33.6566913,-117.746277,52.42,-1.15,2.12,0.31,1.431,1.993,0.34,120.07839,3.75995,3,12
2021-12-11T13:48:51.20Z,33.6566889,-117.74627240000001,52.371,-1.49,2.47,-0.05,1.43,1.988,0.36,120.67394,3.2123,3,12
2021-12-11T13:48:51.40Z,33.6566863,-117.74626760000001,52.378,-1.34,2.06,-0.16,1.429,1.983,0.34,121.63806,3.84856,3,12
2021-12-11T13:48:51.60Z,33.656683799999996,-117.74626310000001,52.318,-1.46,2.38,0.32,1.429,1.983,0.33,121.59993,3.29816,3,12
2021-12-11T13:48:51.80Z,33.6566813,-117.74625800000001,52.377,-1.37,2.61,-0.26,1.427,1.984,0.34,119.48975,3.08716,3,12
2021-12-11T13:48:52.00Z,33.6566787,-117.7462529,52.455,-1.56,2.38,-0.39,1.425,1.984,0.35,121.3121,3.32077,3,12
2021-12-11T13:48:52.20Z,33.6566763,-117.7462484,52.336,-1.43,2.86,0.27,1.421,1.979,0.34,118.67534,3.03831,3,12
2021-12-11T13:48:52.40Z,33.656673999999995,-117.7462433,52.306,-1.39,2.93,-0.22,1.418,1.973,0.33,116.91295,2.86327,3,12
2021-12-11T13:48:52.60Z,33.65667139999999,-117.74623770000001,52.413,-1.36,2.32,-0.32,1.419,1.974,0.41,118.26505,3.73025,3,12
2021-12-11T13:48:52.80Z,33.656668999999994,-117.7462326,52.285,-1.48,2.72,0.51,1.418,1.975,0.28,118.39618,2.76193,3,12
2021-12-11T13:48:53.00Z,33.656666599999994,-117.7462268,52.275,-1.36,2.75,-0.23,1.416,1.974,0.32,117.36728,2.78567,3,12
2021-12-11T13:48:53.20Z,33.656664,-117.74622140000001,52.254,-1.65,2.35,0.32,1.413,1.972,0.28,120.97611,3.076,3,12
2021-12-11T13:48:53.40Z,33.6566612,-117.7462165,52.053,-1.71,2.88,0.47,1.41,1.97,0.28,120.83561,2.77303,3,12
2021-12-11T13:48:53.60Z,33.656658,-117.7462103,52.065,-1.86,2.93,-0.32,1.405,1.958,0.33,121.70355,2.64148,3,11
2021-12-11T13:48:53.80Z,33.6566543,-117.74620420000001,52.115,-2.1,2.86,-0.13,1.405,1.958,0.33,123.94662,2.80374,3,11
2021-12-11T13:48:54.00Z,33.656650799999994,-117.7461985,51.98,-1.89,3.03,0.57,1.403,1.957,0.29,122.7938,2.57643,3,12
2021-12-11T13:48:54.20Z,33.6566476,-117.7461925,51.892,-1.89,2.84,0.02,1.4,1.953,0.31,123.28247,2.52113,3,12
2021-12-11T13:48:54.40Z,33.656643599999995,-117.74618600000001,51.95,-2.32,3.13,-0.28,1.397,1.949,0.31,125.0527,2.45087,3,12
2021-12-11T13:48:54.60Z,33.6566402,-117.7461806,51.717,-1.96,3.21,0.55,1.382,1.919,0.27,122.91078,2.15876,3,12
2021-12-11T13:48:54.80Z,33.656637,-117.74617470000001,51.535,-1.94,3.18,0.14,1.37,1.895,0.3,122.10395,2.19498,3,12
2021-12-11T13:48:55.00Z,33.6566335,-117.74616850000001,51.485,-2.17,3.22,-0.1,1.358,1.871,0.29,123.1435,2.09357,3,12
2021-12-11T13:48:55.20Z,33.6566299,-117.7461621,51.343,-2.24,3.77,0.38,1.345,1.846,0.29,121.6653,1.85955,3,12
2021-12-11T13:48:55.40Z,33.6566262,-117.7461555,51.17,-2.34,3.32,0.32,1.334,1.823,0.28,123.46968,1.99196,3,12
2021-12-11T13:48:55.60Z,33.6566224,-117.7461485,51.087,-2.2,3.99,-0.15,1.319,1.793,0.27,120.47849,1.61471,3,12
2021-12-11T13:48:55.80Z,33.65661849999999,-117.7461408,50.992,-2.64,4.46,-0.32,1.305,1.765,0.28,120.57445,1.43223,3,11
2021-12-11T13:48:56.00Z,33.656614,-117.7461323,50.841,-2.9,4.64,0.39,1.291,1.737,0.26,121.45785,1.37159,3,12
2021-12-11T13:48:56.20Z,33.656609399999994,-117.74612300000001,50.739,-2.44,4.67,0.5,1.286,1.729,0.27,119.26798,1.48571,3,11
2021-12-11T13:48:56.40Z,33.656605,-117.7461136,50.702,-2.77,4.74,-0.2,1.281,1.721,0.29,119.89889,1.43041,3,11
2021-12-11T13:48:56.60Z,33.6566002,-117.74610320000001,50.738,-2.87,5.42,-0.32,1.271,1.697,0.28,118.53983,1.20209,3,11
2021-12-11T13:48:56.80Z,33.656595499999995,-117.7460923,50.647,-2.94,6.11,-0.22,1.261,1.675,0.3,116.58664,1.10884,3,10
2021-12-11T13:48:57.00Z,33.6565904,-117.7460812,50.627,-3.19,5.3,-0.31,1.253,1.655,0.29,119.31887,1.2173,3,10
2021-12-11T13:48:57.20Z,33.6565849,-117.74607,50.748,-2.85,5.59,-0.48,1.247,1.641,0.3,117.89458,1.27938,3,11
2021-12-11T13:48:57.40Z,33.6565796,-117.74605820000001,50.701,-3.37,6.49,0.05,1.241,1.628,0.29,117.58826,1.13748,3,11
2021-12-11T13:48:57.60Z,33.6565738,-117.7460463,50.611,-3.34,5.89,-0.36,1.237,1.618,0.3,118.79927,1.2874,3,11
2021-12-11T13:48:57.80Z,33.6565681,-117.74603420000001,50.58,-3.06,6.17,0.22,1.233,1.608,0.3,117.22663,1.24911,3,11
2021-12-11T13:48:58.00Z,33.656561999999994,-117.74602130000001,50.558,-3.86,6.65,-0.34,1.227,1.598,0.31,119.31907,1.0811,3,11
2021-12-11T13:48:58.20Z,33.656555499999996,-117.7460073,50.549,-3.7,7.24,-0.21,1.221,1.586,0.3,117.04402,0.87321,3,11
2021-12-11T13:48:58.40Z,33.6565491,-117.74599280000001,50.566,-3.53,7.3,-0.4,1.212,1.567,0.3,115.79467,0.97098,3,11
2021-12-11T13:48:58.60Z,33.6565423,-117.7459776,50.71,-3.89,7.54,-0.72,1.203,1.548,0.29,117.2674,0.8459,3,11
2021-12-11T13:48:58.80Z,33.65653519999999,-117.74596120000001,50.854,-3.9,8.53,-0.83,1.194,1.53,0.29,114.58151,0.78546,3,11
2021-12-11T13:48:59.00Z,33.6565283,-117.7459439,51.006,-3.87,8.51,-0.99,1.187,1.518,0.3,114.48399,0.75773,3,11
2021-12-11T13:48:59.20Z,33.6565214,-117.74592630000001,51.168,-3.93,9.02,-1.28,1.181,1.507,0.3,113.52757,0.76474,3,11
2021-12-11T13:48:59.40Z,33.6565144,-117.7459078,51.525,-3.82,8.91,-1.78,1.175,1.496,0.31,113.23633,0.75194,3,11
2021-12-11T13:48:59.60Z,33.6565078,-117.7458896,51.912,-3.51,9.12,-2.28,1.17,1.488,0.32,111.02987,0.85832,3,11
2021-12-11T13:48:59.80Z,33.6565018,-117.7458713,52.344,-3.29,9.11,-2.59,1.165,1.479,0.33,109.85766,0.86139,3,11
2021-12-11T13:49:00.00Z,33.656496,-117.74585300000001,52.881,-2.94,8.85,-3.03,1.158,1.47,0.34,108.37251,0.81876,3,11
2021-12-11T13:49:00.20Z,33.6564908,-117.7458349,53.54,-2.75,8.82,-3.31,1.158,1.475,0.41,107.34124,1.40523,3,11
2021-12-11T13:49:00.40Z,33.656486,-117.74581710000001,54.297,-2.45,8.42,-3.59,1.16,1.481,0.41,106.21075,1.30147,3,11
2021-12-11T13:49:00.60Z,33.656481799999995,-117.7458,55.078,-2.17,8.11,-3.77,1.164,1.49,0.43,104.98883,1.30584,3,11
2021-12-11T13:49:00.80Z,33.656478,-117.74578360000001,55.872,-1.93,7.89,-3.97,1.167,1.496,0.45,103.71179,2.06051,3,11
2021-12-11T13:49:01.00Z,33.6564749,-117.7457677,56.691,-1.59,7.81,-4.1,1.17,1.497,0.43,101.4747,1.50209,3,11
2021-12-11T13:49:01.20Z,33.6564723,-117.7457523,57.486,-1.44,7.46,-4.04,1.167,1.491,0.39,100.88981,1.57082,3,11
2021-12-11T13:49:01.40Z,33.65647,-117.7457377,58.214,-1.31,7.21,-3.84,1.165,1.485,0.38,100.31814,1.68366,3,10
2021-12-11T13:49:01.60Z,33.6564675,-117.7457231,59.053,-1.34,6.92,-3.91,1.163,1.481,0.38,100.98152,1.78516,3,10
2021-12-11T13:49:01.80Z,33.656465499999996,-117.7457093,59.708,-1.03,6.95,-3.4,1.159,1.469,0.36,99.48588,1.77839,3,11
2021-12-11T13:49:02.00Z,33.656463599999995,-117.74569530000001,60.374,-1.14,6.72,-3.28,1.157,1.459,0.37,99.54741,1.86021,3,11
2021-12-11T13:49:02.20Z,33.6564618,-117.745682,61.0,-0.89,6.39,-3.18,1.155,1.45,0.37,98.65722,2.01322,3,11
2021-12-11T13:49:02.40Z,33.6564602,-117.745669,61.581,-0.99,6.44,-2.88,1.154,1.441,0.39,98.72465,2.10207,3,11
2021-12-11T13:49:02.60Z,33.6564583,-117.7456557,62.17,-0.92,6.32,-2.71,1.156,1.438,0.4,98.50116,2.06722,3,11
2021-12-11T13:49:02.80Z,33.6564566,-117.74564240000001,62.646,-0.91,6.63,-2.3,1.158,1.435,0.4,98.11085,1.98647,3,11
2021-12-11T13:49:03.00Z,33.6564544,-117.74562900000001,63.021,-1.7,6.72,-1.93,1.162,1.434,0.43,101.46088,2.05806,3,11
2021-12-11T13:49:03.20Z,33.6564517,-117.7456152,63.334,-1.44,6.92,-1.6,1.165,1.431,0.42,101.64074,1.76179,3,11
2021-12-11T13:49:03.40Z,33.656448999999995,-117.7456011,63.585,-1.8,7.15,-1.44,1.171,1.43,0.47,103.1491,1.69885,3,11
2021-12-11T13:49:03.60Z,33.6564456,-117.7455869,63.918,-1.89,6.77,-1.65,1.178,1.429,0.48,104.57239,1.73462,3,11
2021-12-11T13:49:03.80Z,33.6564421,-117.7455733,64.367,-1.83,6.39,-2.04,1.189,1.427,0.56,105.27798,2.04516,3,10
2021-12-11T13:49:04.00Z,33.6564381,-117.74555980000001,64.727,-2.67,6.84,-1.99,1.201,1.427,0.49,108.63791,2.11545,3,11
2021-12-11T13:49:04.20Z,33.6564334,-117.7455458,65.013,-2.57,7.07,-1.67,1.21,1.428,0.49,109.53523,1.72413,3,11
2021-12-11T13:49:04.40Z,33.6564288,-117.7455312,65.32,-2.5,7.14,-1.56,1.221,1.435,0.51,109.41055,2.16224,3,11
2021-12-11T13:49:04.60Z,33.6564244,-117.745517,65.581,-2.57,7.06,-1.57,1.233,1.444,0.51,109.71713,2.35251,3,11
2021-12-11T13:49:04.80Z,33.6564194,-117.7455029,65.955,-2.88,6.68,-1.85,1.243,1.451,0.5,111.81508,2.21615,3,11
2021-12-11T13:49:05.00Z,33.656413799999996,-117.7454888,66.517,-2.9,6.45,-2.23,1.252,1.456,0.49,113.25555,2.04816,3,11
2021-12-11T13:49:05.20Z,33.656408,-117.74547530000001,66.961,-3.77,6.98,-2.36,1.262,1.464,0.56,118.39187,2.14314,3,11
2021-12-11T13:49:05.40Z,33.6564018,-117.74546210000001,67.382,-3.64,6.85,-2.67,1.274,1.472,0.5,117.95362,2.11469,3,11
2021-12-11T13:49:05.60Z,33.6563952,-117.7454489,67.889,-3.8,6.41,-2.93,1.282,1.474,0.49,120.64385,2.17643,3,11
2021-12-11T13:49:05.80Z,33.6563883,-117.7454359,68.547,-3.5,5.97,-3.34,1.291,1.481,0.5,120.49635,2.3641,3,11
2021-12-11T13:49:06.00Z,33.6563816,-117.745424,69.18,-3.99,5.87,-3.42,1.3,1.49,0.5,122.29466,2.74738,3,11
2021-12-11T13:49:06.20Z,33.656374,-117.74541210000001,69.9,-4.25,5.56,-3.48,1.31,1.5,0.51,124.88206,2.9385,3,11
2021-12-11T13:49:06.40Z,33.6563656,-117.74540060000001,70.731,-4.66,5.08,-3.69,1.32,1.51,0.5,128.95226,2.95356,3,11
2021-12-11T13:49:06.60Z,33.6563574,-117.74539080000001,71.361,-4.75,5.01,-3.57,1.329,1.52,0.51,131.47066,2.82845,3,11
2021-12-11T13:49:06.80Z,33.6563488,-117.74538120000001,72.034,-4.78,4.55,-3.48,1.338,1.53,0.55,133.97069,3.02084,3,11
2021-12-11T13:49:07.00Z,33.6563403,-117.7453725,72.778,-4.65,3.92,-3.44,1.346,1.538,0.5,136.98769,3.17699,3,11
2021-12-11T13:49:07.20Z,33.6563314,-117.7453646,73.461,-5.02,3.74,-3.48,1.35,1.54,0.48,140.56404,2.95112,3,11
2021-12-11T13:49:07.40Z,33.656322599999996,-117.74535780000001,74.21,-4.58,2.84,-3.84,1.354,1.541,0.46,143.99674,3.5007,3,11
2021-12-11T13:49:07.60Z,33.6563137,-117.7453519,74.845,-5.32,3.19,-3.46,1.357,1.542,0.49,147.0123,3.0387,3,11
2021-12-11T13:49:07.80Z,33.6563043,-117.7453459,75.547,-5.19,2.79,-3.36,1.365,1.548,0.56,149.17609,3.53618,3,10
2021-12-11T13:49:08.00Z,33.656294700000004,-117.7453402,76.095,-5.48,3.04,-3.01,1.369,1.549,0.48,150.32242,2.81384,3,11
2021-12-11T13:49:08.20Z,33.6562851,-117.7453346,76.749,-5.13,2.38,-3.03,1.373,1.549,0.5,152.26453,3.61153,3,11
2021-12-11T13:49:08.40Z,33.6562755,-117.7453294,77.412,-5.35,2.48,-2.99,1.378,1.549,0.5,153.84416,3.40466,3,11
2021-12-11T13:49:08.60Z,33.6562665,-117.7453249,78.104,-4.75,1.96,-3.25,1.384,1.551,0.48,155.4259,4.13805,3,11
2021-12-11T13:49:08.80Z,33.6562574,-117.7453205,78.812,-5.21,2.19,-3.13,1.392,1.562,0.53,156.33583,4.28476,3,11
2021-12-11T13:49:09.00Z,33.6562479,-117.74531590000001,79.409,-5.55,2.8,-2.99,1.4,1.575,0.64,154.50087,3.6287,3,11
2021-12-11T13:49:09.20Z,33.656237899999994,-117.74531040000001,80.055,-5.7,2.81,-2.9,1.411,1.589,0.65,154.07675,3.56446,3,11
2021-12-11T13:49:09.40Z,33.6562277,-117.74530440000001,80.655,-5.72,3.25,-2.82,1.422,1.605,0.65,152.06056,3.45364,3,11
2021-12-11T13:49:09.60Z,33.6562176,-117.7452983,81.118,-5.71,3.37,-2.51,1.432,1.621,0.62,150.68843,3.41953,3,11
2021-12-11T13:49:09.80Z,33.656208,-117.7452921,81.616,-5.4,3.51,-2.26,1.436,1.635,0.56,148.6038,3.22259,3,11
2021-12-11T13:49:10.00Z,33.6561985,-117.7452856,82.043,-5.68,3.81,-2.25,1.438,1.648,0.52,147.22551,3.01431,3,11
2021-12-11T13:49:10.20Z,33.6561887,-117.74527830000001,82.54,-5.48,3.96,-2.16,1.438,1.661,0.54,145.54507,2.92955,3,11
2021-12-11T13:49:10.40Z,33.6561787,-117.7452706,82.974,-5.82,4.19,-2.3,1.44,1.671,0.52,144.78814,2.659,3,11
2021-12-11T13:49:10.60Z,33.6561686,-117.74526230000001,83.513,-5.57,4.15,-2.35,1.443,1.681,0.52,144.02637,2.75028,3,11
2021-12-11T13:49:10.80Z,33.656158399999995,-117.74525390000001,84.065,-5.84,4.36,-2.44,1.444,1.688,0.49,143.57909,2.50625,3,11
2021-12-11T13:49:11.00Z,33.656148,-117.74524530000001,84.603,-5.96,4.42,-2.51,1.445,1.698,0.49,143.49816,2.57816,3,10
2021-12-11T13:49:11.20Z,33.6561373,-117.74523620000001,85.131,-5.82,4.56,-2.44,1.445,1.704,0.43,142.50732,2.19276,3,11
2021-12-11T13:49:11.40Z,33.6561265,-117.7452272,85.569,-6.12,4.69,-2.36,1.446,1.71,0.43,142.55489,2.1998,3,11
2021-12-11T13:49:11.60Z,33.6561157,-117.74521800000001,86.043,-6.08,4.7,-2.33,1.449,1.721,0.47,142.27582,2.39043,3,11
2021-12-11T13:49:11.80Z,33.656104799999994,-117.7452083,86.571,-6.04,4.7,-2.37,1.457,1.733,0.51,142.10125,2.78658,3,11
2021-12-11T13:49:12.00Z,33.6560941,-117.74519910000001,87.013,-6.18,4.73,-2.51,1.463,1.744,0.48,142.59872,2.71501,3,11
2021-12-11T13:49:12.20Z,33.656083100000004,-117.7451905,87.459,-6.46,4.47,-2.45,1.465,1.755,0.46,145.33986,2.48668,3,11
2021-12-11T13:49:12.40Z,33.6560719,-117.7451825,87.938,-6.36,4.05,-2.56,1.466,1.765,0.46,146.52336,2.50394,3,11
2021-12-11T13:49:12.60Z,33.6560601,-117.7451747,88.439,-6.82,4.0,-2.44,1.453,1.747,0.42,149.57917,1.72086,3,11
2021-12-11T13:49:12.80Z,33.6560486,-117.7451681,88.715,-6.7,3.82,-2.45,1.44,1.733,0.4,150.33421,1.75115,3,11
2021-12-11T13:49:13.00Z,33.6560366,-117.7451616,89.191,-6.89,3.45,-2.47,1.429,1.721,0.5,153.41592,1.84169,3,10
2021-12-11T13:49:13.20Z,33.6560232,-117.74515480000001,89.722,-7.02,3.13,-2.63,1.417,1.707,0.38,155.99092,1.83411,3,11
2021-12-11T13:49:13.40Z,33.6560106,-117.74514880000001,90.377,-6.52,2.64,-2.9,1.404,1.695,0.36,157.07025,1.97436,3,11
2021-12-11T13:49:13.60Z,33.655998600000004,-117.7451439,90.878,-6.78,2.6,-2.98,1.393,1.686,0.38,158.21594,1.95717,3,11
2021-12-11T13:49:13.80Z,33.6559864,-117.7451394,91.397,-6.87,2.47,-3.07,1.383,1.678,0.38,159.36902,2.00455,3,11
2021-12-11T13:49:14.00Z,33.655974099999995,-117.74513490000001,92.029,-6.69,2.17,-3.17,1.377,1.678,0.39,160.66511,2.41179,3,11
2021-12-11T13:49:14.20Z,33.655962099999996,-117.7451308,92.743,-6.62,1.94,-3.32,1.37,1.675,0.38,162.37543,2.34604,3,11
2021-12-11T13:49:14.40Z,33.6559506,-117.7451272,93.51,-6.21,1.67,-3.49,1.366,1.676,0.37,163.61449,2.66699,3,11
2021-12-11T13:49:14.60Z,33.655939000000004,-117.7451238,94.173,-6.8,2.11,-3.43,1.361,1.676,0.38,163.09527,2.44836,3,11
2021-12-11T13:49:14.80Z,33.6559268,-117.7451197,94.949,-6.72,1.86,-3.41,1.357,1.677,0.36,163.85704,2.52749,3,11
2021-12-11T13:49:15.00Z,33.6559146,-117.74511580000001,95.654,-6.87,2.11,-3.42,1.351,1.677,0.34,163.28131,2.24144,3,11
2021-12-11T13:49:15.20Z,33.655902299999994,-117.7451114,96.469,-6.59,2.23,-3.57,1.346,1.677,0.34,162.21714,2.32257,3,11
2021-12-11T13:49:15.40Z,33.6558906,-117.745107,97.118,-6.71,2.59,-3.48,1.343,1.677,0.37,160.39242,2.38351,3,11
2021-12-11T13:49:15.60Z,33.6558791,-117.74510210000001,97.789,-6.4,2.61,-3.46,1.34,1.678,0.39,159.0639,2.55427,3,11
2021-12-11T13:49:15.80Z,33.655867799999996,-117.74509710000001,98.452,-6.47,2.71,-3.27,1.337,1.679,0.38,158.03824,2.44863,3,11
2021-12-11T13:49:16.00Z,33.655856099999994,-117.7450914,99.247,-6.3,2.93,-3.26,1.333,1.677,0.38,156.36114,2.41645,3,11
2021-12-11T13:49:16.20Z,33.6558448,-117.7450858,99.885,-6.51,2.98,-3.04,1.33,1.68,0.43,155.86508,2.70438,3,10
2021-12-11T13:49:16.40Z,33.655833,-117.74507990000001,100.678,-6.1,2.88,-3.18,1.327,1.68,0.41,155.19161,2.50051,3,11
2021-12-11T13:49:16.60Z,33.65582259999999,-117.74507410000001,101.228,-5.79,3.31,-3.16,1.324,1.682,0.43,152.64391,2.6559,3,10
2021-12-11T13:49:16.80Z,33.655811299999996,-117.74506740000001,101.956,-6.09,3.22,-3.12,1.322,1.681,0.43,152.34854,2.4124,3,11
2021-12-11T13:49:17.00Z,33.6558005,-117.74506070000001,102.578,-5.8,3.37,-3.13,1.321,1.684,0.4,151.11105,2.66334,3,10
2021-12-11T13:49:17.20Z,33.6557904,-117.74505400000001,103.216,-5.34,3.32,-3.16,1.32,1.684,0.4,149.51081,2.66487,3,11
2021-12-11T13:49:17.40Z,33.655780199999995,-117.74504710000001,103.827,-5.84,3.62,-3.15,1.319,1.685,0.43,148.72755,2.40258,3,11
2021-12-11T13:49:17.60Z,33.6557695,-117.7450396,104.447,-5.79,3.56,-3.04,1.318,1.683,0.38,148.5479,2.33862,3,11
2021-12-11T13:49:17.80Z,33.6557586,-117.74503220000001,105.003,-5.96,3.71,-3.0,1.314,1.677,0.36,148.27557,2.04714,3,11
2021-12-11T13:49:18.00Z,33.655748,-117.7450249,105.534,-5.72,3.59,-3.02,1.312,1.677,0.42,148.09354,2.25285,3,10
2021-12-11T13:49:18.20Z,33.6557372,-117.7450173,106.187,-5.79,3.53,-2.97,1.308,1.669,0.41,148.44405,2.0352,3,11
2021-12-11T13:49:18.40Z,33.655727,-117.7450101,106.756,-5.48,3.47,-3.02,1.308,1.672,0.43,148.09407,2.52117,3,10
2021-12-11T13:49:18.60Z,33.65571679999999,-117.7450029,107.352,-5.84,3.52,-3.01,1.31,1.675,0.47,148.56568,2.39497,3,10
2021-12-11T13:49:18.80Z,33.6557062,-117.7449959,107.919,-6.03,3.45,-3.05,1.312,1.679,0.42,149.47866,2.35951,3,11
2021-12-11T13:49:19.00Z,33.6556955,-117.7449891,108.461,-6.2,3.43,-3.05,1.312,1.679,0.41,150.39134,2.1494,3,11
2021-12-11T13:49:19.20Z,33.6556844,-117.74498220000001,109.05,-6.25,3.36,-3.16,1.31,1.675,0.4,151.18206,2.01435,3,11
2021-12-11T13:49:19.40Z,33.655673300000004,-117.7449759,109.721,-6.15,2.85,-3.18,1.307,1.667,0.38,153.43797,2.01517,3,11
2021-12-11T13:49:19.60Z,33.6556623,-117.7449704,110.342,-6.2,2.86,-3.12,1.303,1.659,0.38,154.46029,2.02439,3,11
2021-12-11T13:49:19.80Z,33.6556511,-117.7449648,110.958,-6.41,2.8,-3.12,1.299,1.653,0.38,155.59956,2.00167,3,11
2021-12-11T13:49:20.00Z,33.6556394,-117.7449591,111.635,-6.34,2.83,-3.2,1.296,1.649,0.4,155.78207,2.16891,3,11
2021-12-11T13:49:20.20Z,33.655628,-117.74495350000001,112.39,-6.28,2.51,-3.15,1.294,1.646,0.37,157.14872,2.19459,3,11
2021-12-11T13:49:20.40Z,33.655616499999994,-117.7449485,112.965,-6.67,2.71,-3.17,1.292,1.645,0.37,157.58399,2.09951,3,10
2021-12-11T13:49:20.60Z,33.6556041,-117.7449428,113.593,-6.79,2.75,-3.24,1.292,1.649,0.39,157.96105,2.45577,3,11
2021-12-11T13:49:20.80Z,33.655591799999996,-117.7449374,114.221,-6.72,2.59,-3.26,1.294,1.653,0.39,158.49159,2.45936,3,11
2021-12-11T13:49:21.00Z,33.6555797,-117.74493190000001,114.86,-6.52,2.65,-3.25,1.292,1.651,0.38,158.1266,2.12407,3,11
2021-12-11T13:49:21.20Z,33.6555677,-117.7449266,115.481,-6.55,2.58,-3.07,1.29,1.649,0.39,158.33549,2.16345,3,11
2021-12-11T13:49:21.40Z,33.6555561,-117.7449215,116.04,-6.52,2.65,-3.0,1.289,1.647,0.4,158.10213,2.1599,3,11
2021-12-11T13:49:21.60Z,33.655544,-117.7449158,116.671,-6.6,2.77,-2.93,1.287,1.645,0.4,157.58726,2.10803,3,11
2021-12-11T13:49:21.80Z,33.6555319,-117.7449096,117.309,-6.45,3.01,-2.91,1.285,1.643,0.4,156.1212,2.08533,3,11
2021-12-11T13:49:22.00Z,33.6555199,-117.74490320000001,117.874,-6.51,3.26,-2.89,1.283,1.641,0.39,154.53177,2.00802,3,11
2021-12-11T13:49:22.20Z,33.6555086,-117.7448966,118.356,-6.1,3.4,-2.94,1.281,1.64,0.4,152.50793,2.11612,3,11
2021-12-11T13:49:22.40Z,33.6554971,-117.74488930000001,118.996,-6.17,3.41,-3.03,1.279,1.636,0.34,151.67268,2.03557,3,11
2021-12-11T13:49:22.60Z,33.6554861,-117.7448821,119.568,-5.85,3.54,-3.27,1.277,1.633,0.34,149.99699,1.96946,3,11
2021-12-11T13:49:22.80Z,33.6554756,-117.7448744,120.197,-5.75,3.89,-3.19,1.278,1.636,0.36,147.96851,2.31753,3,11
2021-12-11T13:49:23.00Z,33.655465,-117.74486610000001,120.929,-5.65,3.86,-3.14,1.278,1.635,0.36,146.60982,2.16711,3,11
2021-12-11T13:49:23.20Z,33.655455,-117.7448576,121.64,-5.22,4.21,-3.36,1.279,1.639,0.38,143.56917,2.20554,3,11
2021-12-11T13:49:23.40Z,33.6554453,-117.74484860000001,122.302,-5.47,4.51,-3.37,1.28,1.64,0.38,141.6802,1.98791,3,11
2021-12-11T13:49:23.60Z,33.6554357,-117.7448392,122.972,-5.11,4.75,-3.57,1.279,1.64,0.37,138.91202,1.85434,3,11
2021-12-11T13:49:23.80Z,33.6554267,-117.7448296,123.675,-4.91,4.86,-3.86,1.277,1.636,0.37,136.68864,1.74255,3,11
2021-12-11T13:49:24.00Z,33.6554184,-117.74482,124.34,-4.87,5.07,-3.83,1.275,1.635,0.4,133.8722,1.799,3,11
2021-12-11T13:49:24.20Z,33.65541,-117.7448099,125.08,-4.46,4.84,-3.79,1.274,1.634,0.4,133.21023,1.90007,3,11
2021-12-11T13:49:24.40Z,33.6554023,-117.74480030000001,125.821,-4.37,4.84,-3.78,1.272,1.632,0.41,132.53108,1.79814,3,11
2021-12-11T13:49:24.60Z,33.6553949,-117.7447908,126.516,-4.23,4.92,-3.66,1.271,1.633,0.41,131.4921,1.94522,3,11
2021-12-11T13:49:24.80Z,33.6553878,-117.7447813,127.236,-4.1,4.82,-3.63,1.27,1.633,0.41,130.84144,1.94427,3,11
2021-12-11T13:49:25.00Z,33.655381199999994,-117.7447722,127.937,-3.66,4.44,-3.52,1.269,1.634,0.41,130.13174,2.1713,3,11
2021-12-11T13:49:25.20Z,33.655375199999995,-117.7447635,128.606,-3.53,4.61,-3.6,1.265,1.628,0.4,128.44051,1.91829,3,11
2021-12-11T13:49:25.40Z,33.6553693,-117.7447547,129.325,-3.42,4.43,-3.69,1.263,1.625,0.39,128.03762,2.11224,3,11
2021-12-11T13:49:25.60Z,33.6553639,-117.74474620000001,129.977,-3.24,4.37,-3.45,1.26,1.619,0.39,127.16754,2.03927,3,11
2021-12-11T13:49:25.80Z,33.6553585,-117.7447379,130.606,-3.41,4.35,-3.35,1.259,1.615,0.37,127.69569,2.07842,3,11
2021-12-11T13:49:26.00Z,33.6553528,-117.7447295,131.302,-3.1,4.04,-3.18,1.255,1.606,0.38,127.61124,2.15343,3,11
2021-12-11T13:49:26.20Z,33.6553477,-117.7447216,131.938,-2.85,3.73,-2.91,1.259,1.609,0.43,127.54645,3.18606,3,11
2021-12-11T13:49:26.40Z,33.655342399999995,-117.7447137,132.545,-3.08,3.93,-2.64,1.265,1.614,0.44,127.82441,3.01853,3,11
2021-12-11T13:49:26.60Z,33.655336399999996,-117.7447054,133.151,-3.31,4.01,-2.53,1.263,1.603,0.39,129.05459,1.96959,3,10
2021-12-11T13:49:26.80Z,33.655330899999996,-117.74469760000001,133.54,-3.42,4.15,-2.16,1.261,1.596,0.35,129.27451,1.97989,3,11
2021-12-11T13:49:27.00Z,33.6553251,-117.7446896,133.924,-3.54,4.16,-2.1,1.256,1.587,0.35,129.94043,1.9123,3,11
2021-12-11T13:49:27.20Z,33.655319399999996,-117.7446817,134.235,-3.54,3.91,-2.08,1.25,1.574,0.34,131.25544,1.8216,3,11
2021-12-11T13:49:27.40Z,33.6553138,-117.7446738,134.627,-3.08,3.94,-2.09,1.242,1.558,0.34,129.36242,1.79076,3,11
2021-12-11T13:49:27.60Z,33.6553081,-117.7446658,135.062,-3.18,4.14,-1.97,1.237,1.548,0.3,128.45468,2.08822,3,11
2021-12-11T13:49:27.80Z,33.6553023,-117.74465740000001,135.396,-3.29,4.32,-1.85,1.231,1.536,0.3,127.80735,1.95789,3,11
2021-12-11T13:49:28.00Z,33.6552964,-117.7446491,135.741,-3.33,4.32,-1.85,1.224,1.525,0.3,127.6942,1.70173,3,11
2021-12-11T13:49:28.20Z,33.6552906,-117.7446405,136.191,-3.35,4.35,-2.06,1.219,1.515,0.3,127.66154,1.74216,3,11
2021-12-11T13:49:28.40Z,33.6552846,-117.7446319,136.6,-3.65,4.58,-2.07,1.215,1.509,0.3,128.1728,1.7924,3,11
2021-12-11T13:49:28.60Z,33.6552784,-117.7446226,136.975,-3.69,5.06,-2.18,1.212,1.504,0.3,126.95815,1.74739,3,11
2021-12-11T13:49:28.80Z,33.6552722,-117.7446128,137.31,-3.7,5.09,-2.04,1.209,1.499,0.3,126.3631,1.69627,3,11
2021-12-11T13:49:29.00Z,33.6552652,-117.7446024,137.681,-3.97,5.23,-1.77,1.207,1.496,0.3,126.84057,1.72584,3,11
2021-12-11T13:49:29.20Z,33.655256699999995,-117.744591,138.301,-4.36,5.17,-2.17,1.2,1.482,0.3,129.23385,1.2931,3,11
2021-12-11T13:49:29.40Z,33.6552499,-117.7445805,138.594,-3.97,5.56,-2.18,1.195,1.473,0.3,127.00638,1.4067,3,10
2021-12-11T13:49:29.60Z,33.655243,-117.7445696,138.996,-4.08,5.6,-2.33,1.19,1.465,0.31,126.41668,1.39113,3,11
2021-12-11T13:49:29.80Z,33.6552353,-117.744558,139.521,-4.16,5.89,-2.27,1.185,1.452,0.36,125.64216,1.30177,3,11
2021-12-11T13:49:30.00Z,33.6552279,-117.7445462,140.031,-4.25,5.93,-2.39,1.18,1.441,0.37,125.61475,1.2931,3,10
2021-12-11T13:49:30.20Z,33.6552202,-117.74453410000001,140.62,-3.9,5.83,-2.6,1.176,1.431,0.32,124.52518,1.44085,3,11
2021-12-11T13:49:30.40Z,33.6552128,-117.74452210000001,141.226,-4.07,5.95,-2.86,1.17,1.416,0.32,124.44916,1.33416,3,11
2021-12-11T13:49:30.60Z,33.655205499999994,-117.7445101,141.792,-3.87,5.97,-3.09,1.164,1.406,0.33,123.49721,1.34361,3,11
2021-12-11T13:49:30.80Z,33.6551979,-117.74449800000001,142.432,-4.12,5.88,-2.96,1.159,1.401,0.34,124.48348,1.33391,3,11
2021-12-11T13:49:31.00Z,33.6551905,-117.7444859,143.09,-3.86,5.94,-3.36,1.154,1.392,0.34,123.55174,1.35872,3,11
2021-12-11T13:49:31.20Z,33.655183199999996,-117.7444742,143.783,-4.17,5.65,-3.91,1.152,1.394,0.36,126.43719,1.72391,3,11
2021-12-11T13:49:31.40Z,33.655176,-117.74446280000001,144.456,-3.87,5.83,-3.8,1.147,1.386,0.34,124.56227,1.48963,3,11
2021-12-11T13:49:31.60Z,33.6551689,-117.74445130000001,145.193,-3.82,5.42,-3.98,1.141,1.376,0.34,124.93848,1.4842,3,11
