,velN,velE,elapsed_time,groundspeed,flight_mode
0,-0.63,0.98,0.0,1.1650321883965267,0
1,-0.79,0.8,0.2,1.1243220179290274,0
2,-0.78,0.75,0.4,1.082081327812286,0
3,-0.46,0.52,0.6000000000000001,0.6942621983083913,0
4,-0.43,0.25,0.8,0.4973932046178355,0
5,0.12,-0.15,1.0,0.19209372712298547,0
6,-0.06,0.21,1.2000000000000002,0.21840329667841554,0
7,-0.32,-0.12,1.4000000000000001,0.34176014981270125,0
8,-0.04,-0.06,1.6,0.07211102550927978,0
9,0.13,0.06,1.8,0.14317821063276354,0
10,0.01,-0.12,2.0,0.12041594578792295,0
11,0.04,-0.2,2.2,0.20396078054371142,0
12,0.06,-0.05,2.4000000000000004,0.07810249675906655,0
13,0.16,-0.15,2.6,0.2193171219946131,0
14,0.05,-0.13,2.8000000000000003,0.1392838827718412,0
15,0.13,-0.18,3.0,0.22203603311174516,0
16,0.06,-0.09,3.2,0.10816653826391967,0
17,0.0,-0.09,3.4000000000000004,0.09,0
18,0.1,-0.21,3.6,0.23259406699226012,0
19,0.08,-0.1,3.8000000000000003,0.12806248474865697,0
20,-0.01,-0.1,4.0,0.1004987562112089,0
21,0.07,-0.19,4.2,0.2024845673131659,0
22,0.06,-0.11,4.4,0.12529964086141668,0
23,-0.01,-0.1,4.6000000000000005,0.1004987562112089,0
24,0.07,-0.11,4.800000000000001,0.130384048104053,0
25,-0.01,-0.11,5.0,0.11045361017187261,0
26,-0.01,-0.06,5.2,0.0608276253029822,0
27,0.09,-0.01,5.4,0.09055385138137416,0
28,0.05,0.01,5.6000000000000005,0.050990195135927854,0
29,-0.02,-0.15,5.800000000000001,0.15132745950421556,0
30,-0.08,-0.11,6.0,0.13601470508735444,0
31,0.04,-0.08,6.2,0.08944271909999159,0
32,-0.06,-0.13,6.4,0.14317821063276354,0
33,0.08,-0.2,6.6000000000000005,0.2154065922853802,0
34,0.09,-0.04,6.800000000000001,0.09848857801796104,0
35,0.12,-0.08,7.0,0.14422205101855956,0
36,0.01,-0.08,7.2,0.0806225774829855,0
37,0.13,-0.11,7.4,0.17029386365926402,0
38,0.08,-0.09,7.6000000000000005,0.12041594578792295,0
39,0.03,-0.06,7.800000000000001,0.0670820393249937,0
40,0.01,-0.02,8.0,0.022360679774997897,0
41,-0.03,-0.11,8.200000000000001,0.11401754250991379,0
42,0.08,-0.16,8.4,0.17888543819998318,0
43,-0.01,-0.09,8.600000000000001,0.09055385138137416,0
44,0.05,-0.07,8.8,0.08602325267042628,0
45,0.08,-0.09,9.0,0.12041594578792295,0
46,-0.04,0.01,9.200000000000001,0.04123105625617661,0
47,-0.05,-0.15,9.4,0.15811388300841897,0
48,-0.17,0.04,9.600000000000001,0.1746424919657298,0
49,-0.37,0.01,9.8,0.37013511046643494,0
50,-0.55,0.18,10.0,0.5787054518492115,0
51,-0.29,-0.06,10.200000000000001,0.29614185789921693,0
52,-0.05,0.1,10.4,0.1118033988749895,0
53,-0.01,-0.1,10.600000000000001,0.1004987562112089,0
54,-0.02,-0.04,10.8,0.044721359549995794,0
55,-0.02,-0.02,11.0,0.0282842712474619,0
56,-0.06,-0.23,11.200000000000001,0.23769728648009425,0
57,-0.4,-0.09,11.4,0.41000000000000003,0
58,0.14,-0.06,11.600000000000001,0.15231546211727817,0
59,0.14,-0.19,11.8,0.23600847442411893,0
60,0.23,0.03,12.0,0.23194827009486405,0
61,0.06,-0.1,12.200000000000001,0.11661903789690602,0
62,0.1,0.35,12.4,0.36400549446402586,0
63,0.25,-0.17,12.600000000000001,0.3023243291566195,0
64,0.34,0.1,12.8,0.35440090293338705,0
65,0.24,0.0,13.0,0.24,0
66,0.24,-0.08,13.200000000000001,0.25298221281347033,0
67,0.13,-0.06,13.4,0.14317821063276354,0
68,0.09,-0.01,13.600000000000001,0.09055385138137416,0
69,-0.01,-0.05,13.8,0.050990195135927854,0
70,-0.04,0.0,14.0,0.04,0
71,-0.07,-0.02,14.200000000000001,0.07280109889280519,0
72,-0.09,0.01,14.4,0.09055385138137416,0
73,-0.17,-0.03,14.600000000000001,0.1726267650163207,0
74,-0.01,-0.04,14.8,0.04123105625617661,0
75,0.12,-0.04,15.000000000000002,0.12649110640673517,0
76,0.06,0.02,15.200000000000001,0.06324555320336758,0
77,0.02,0.07,15.4,0.07280109889280519,0
78,-0.38,0.09,15.600000000000001,0.3905124837953327,0
79,0.08,-0.04,15.8,0.08944271909999159,0
80,0.16,-0.09,16.0,0.1835755975068582,0
81,-0.1,0.02,16.2,0.10198039027185571,0
82,0.13,0.05,16.400000000000002,0.1392838827718412,0
83,-0.09,0.05,16.6,0.10295630140987,0
84,-0.06,-0.01,16.8,0.0608276253029822,0
85,-0.14,-0.01,17.0,0.14035668847618202,0
86,-0.18,0.0,17.200000000000003,0.18,0
87,-0.35,0.27,17.400000000000002,0.44204072210600687,0
88,-0.26,-0.11,17.6,0.2823118842698621,0
89,0.02,-0.09,17.8,0.09219544457292887,0
90,0.11,-0.22,18.0,0.24596747752497686,0
91,0.09,-0.16,18.200000000000003,0.1835755975068582,0
92,0.08,-0.09,18.400000000000002,0.12041594578792295,0
93,0.17,-0.05,18.6,0.17720045146669353,0
94,0.12,-0.09,18.8,0.15,0
95,0.07,-0.1,19.0,0.12206555615733704,0
96,0.11,-0.03,19.200000000000003,0.11401754250991379,0
97,0.05,-0.1,19.400000000000002,0.1118033988749895,0
98,-0.1,-0.06,19.6,0.11661903789690602,0
99,-0.03,-0.03,19.8,0.042426406871192854,0
100,0.15,0.19,20.0,0.2420743687382041,0
101,0.02,-0.01,20.200000000000003,0.022360679774997897,0
102,0.07,-0.02,20.400000000000002,0.07280109889280519,0
103,0.15,-0.03,20.6,0.15297058540778355,0
104,0.01,-0.12,20.8,0.12041594578792295,0
105,-0.05,-0.06,21.0,0.07810249675906655,0
106,-0.04,0.04,21.200000000000003,0.0565685424949238,0
107,-0.03,0.04,21.400000000000002,0.05,0
108,-0.03,0.02,21.6,0.03605551275463989,0
109,-0.01,0.0,21.8,0.01,0
110,-0.01,0.02,22.0,0.022360679774997897,0
111,-0.03,0.03,22.200000000000003,0.042426406871192854,0
112,-0.01,-0.01,22.400000000000002,0.01414213562373095,0
113,0.05,0.03,22.6,0.05830951894845301,0
114,0.01,-0.06,22.8,0.0608276253029822,0
115,0.04,0.01,23.0,0.04123105625617661,0
116,0.09,0.07,23.200000000000003,0.1140175425099138,0
117,-0.05,0.03,23.400000000000002,0.05830951894845301,0
118,0.06,-0.02,23.6,0.06324555320336758,0
119,0.05,-0.06,23.8,0.07810249675906655,0
120,0.09,-0.06,24.0,0.10816653826391967,0
121,-0.13,0.0,24.200000000000003,0.13,0
122,0.05,0.04,24.400000000000002,0.06403124237432849,0
123,0.06,-0.04,24.6,0.07211102550927978,0
124,0.08,-0.01,24.8,0.0806225774829855,0
125,0.06,0.04,25.0,0.07211102550927978,0
126,-0.12,-0.15,25.200000000000003,0.19209372712298547,0
127,0.24,0.13,25.400000000000002,0.2729468812791236,0
128,-0.12,-0.17,25.6,0.20808652046684814,0
129,0.0,0.05,25.8,0.05,0
130,-0.08,-0.16,26.0,0.17888543819998318,0
131,-0.09,-0.07,26.200000000000003,0.1140175425099138,0
132,0.02,0.07,26.400000000000002,0.07280109889280519,0
133,0.0,0.03,26.6,0.03,0
134,-0.17,-0.05,26.8,0.17720045146669353,0
135,-0.07,-0.03,27.0,0.07615773105863909,0
136,0.14,0.03,27.200000000000003,0.14317821063276354,0
137,0.0,-0.05,27.400000000000002,0.05,0
138,-0.01,0.01,27.6,0.01414213562373095,0
139,0.0,0.0,27.8,0.0,0
140,-0.01,-0.02,28.0,0.022360679774997897,0
141,0.0,-0.04,28.200000000000003,0.04,0
142,0.01,0.08,28.400000000000002,0.0806225774829855,0
143,-0.02,-0.01,28.6,0.022360679774997897,0
144,-0.11,-0.08,28.8,0.13601470508735444,0
145,-0.06,-0.19,29.000000000000004,0.19924858845171275,0
146,0.03,0.01,29.200000000000003,0.03162277660168379,0
147,-0.01,0.06,29.400000000000002,0.0608276253029822,0
148,0.02,-0.02,29.6,0.0282842712474619,0
149,0.1,-0.08,29.8,0.12806248474865697,0
150,-0.25,-0.29,30.000000000000004,0.38288379438153297,0
151,0.09,0.35,30.200000000000003,0.36138621999185305,0
152,0.14,0.06,30.400000000000002,0.15231546211727817,0
153,0.04,0.01,30.6,0.04123105625617661,0
154,0.51,-0.29,30.8,0.5866856057549051,0
155,-0.26,0.29,31.000000000000004,0.3894868418830089,0
156,-0.15,0.15,31.200000000000003,0.21213203435596426,0
157,0.3,0.05,31.400000000000002,0.30413812651491096,0
158,-0.02,0.07,31.6,0.07280109889280519,0
159,-0.01,0.06,31.8,0.0608276253029822,0
160,-0.06,0.04,32.0,0.07211102550927978,0
161,-0.06,0.03,32.2,0.0670820393249937,0
162,-0.07,0.05,32.4,0.08602325267042628,0
163,0.0,0.0,32.6,0.0,0
164,-0.02,0.04,32.800000000000004,0.044721359549995794,0
165,-0.07,-0.03,33.0,0.07615773105863909,0
166,-0.01,0.04,33.2,0.04123105625617661,0
167,-0.07,-0.01,33.4,0.07071067811865477,0
168,0.05,-0.01,33.6,0.050990195135927854,0
169,0.01,0.03,33.800000000000004,0.03162277660168379,0
170,-0.08,-0.03,34.0,0.08544003745317531,0
171,0.04,-0.06,34.2,0.07211102550927978,0
172,-0.01,-0.05,34.400000000000006,0.050990195135927854,0
173,0.0,-0.08,34.6,0.08,0
174,-0.06,-0.03,34.800000000000004,0.0670820393249937,0
175,0.08,0.1,35.0,0.12806248474865697,0
176,-0.02,0.09,35.2,0.09219544457292887,0
177,-0.06,-0.05,35.400000000000006,0.07810249675906655,0
178,-0.02,-0.07,35.6,0.07280109889280519,0
179,0.05,-0.05,35.800000000000004,0.07071067811865477,0
180,0.02,0.01,36.0,0.022360679774997897,0
181,-0.01,-0.03,36.2,0.03162277660168379,0
182,0.12,0.09,36.400000000000006,0.15,0
183,0.01,0.03,36.6,0.03162277660168379,0
184,-0.01,-0.01,36.800000000000004,0.01414213562373095,0
185,-0.02,0.06,37.0,0.06324555320336758,0
186,-0.07,-0.09,37.2,0.1140175425099138,0
187,-0.12,-0.01,37.400000000000006,0.12041594578792295,0
188,0.26,-0.18,37.6,0.31622776601683794,0
189,0.15,-0.21,37.800000000000004,0.2580697580112788,0
190,-0.19,-0.06,38.0,0.19924858845171275,0
191,0.0,0.09,38.2,0.09,0
192,-0.09,-0.09,38.400000000000006,0.12727922061357855,0
193,0.18,0.08,38.6,0.19697715603592209,0
194,-0.03,-0.04,38.800000000000004,0.05,0
195,0.06,0.02,39.0,0.06324555320336758,0
196,-0.06,-0.05,39.2,0.07810249675906655,0
197,-0.06,-0.02,39.400000000000006,0.06324555320336758,0
198,-0.05,-0.03,39.6,0.05830951894845301,0
199,0.06,0.02,39.800000000000004,0.06324555320336758,0
200,0.03,0.04,40.0,0.05,0
201,0.01,-0.03,40.2,0.03162277660168379,0
202,0.02,-0.08,40.400000000000006,0.08246211251235322,0
203,0.11,-0.02,40.6,0.11180339887498948,0
204,0.02,-0.09,40.800000000000004,0.09219544457292887,0
205,0.01,0.0,41.0,0.01,0
206,0.02,0.03,41.2,0.03605551275463989,0
207,0.06,-0.05,41.400000000000006,0.07810249675906655,0
208,-0.04,-0.04,41.6,0.0565685424949238,0
209,-0.03,-0.02,41.800000000000004,0.03605551275463989,0
210,0.0,-0.06,42.0,0.06,0
211,-0.05,-0.06,42.2,0.07810249675906655,0
212,0.04,-0.05,42.400000000000006,0.06403124237432849,0
213,0.01,0.0,42.6,0.01,0
214,0.03,-0.04,42.800000000000004,0.05,0
215,0.05,-0.06,43.0,0.07810249675906655,0
216,0.0,0.0,43.2,0.0,0
217,0.0,-0.03,43.400000000000006,0.03,0
218,0.16,0.05,43.6,0.1676305461424021,0
219,0.02,0.05,43.800000000000004,0.05385164807134505,0
220,-0.04,-0.03,44.0,0.05,0
221,-0.07,0.01,44.2,0.07071067811865477,0
222,0.09,-0.03,44.400000000000006,0.09486832980505137,0
223,0.07,-0.04,44.6,0.0806225774829855,0
224,0.05,0.04,44.800000000000004,0.06403124237432849,0
225,0.01,0.03,45.0,0.03162277660168379,0
226,-0.02,-0.05,45.2,0.05385164807134505,0
227,0.03,0.04,45.400000000000006,0.05,0
228,0.02,-0.02,45.6,0.0282842712474619,0
229,-0.04,0.04,45.800000000000004,0.0565685424949238,0
230,0.0,0.03,46.0,0.03,0
231,0.02,-0.01,46.2,0.022360679774997897,0
232,0.04,0.06,46.400000000000006,0.07211102550927978,0
233,0.01,0.04,46.6,0.04123105625617661,0
234,-0.02,-0.01,46.800000000000004,0.022360679774997897,0
235,-0.02,0.03,47.0,0.03605551275463989,0
236,-0.02,0.03,47.2,0.03605551275463989,0
237,-0.03,0.0,47.400000000000006,0.03,0
238,0.06,0.01,47.6,0.0608276253029822,0
239,-0.11,-0.04,47.800000000000004,0.11704699910719625,0
240,0.08,0.01,48.0,0.0806225774829855,0
241,-0.11,0.03,48.2,0.11401754250991379,0
242,0.05,0.03,48.400000000000006,0.05830951894845301,0
243,-0.02,-0.04,48.6,0.044721359549995794,0
244,0.01,0.02,48.800000000000004,0.022360679774997897,0
245,0.01,0.04,49.0,0.04123105625617661,0
246,0.0,0.05,49.2,0.05,0
247,0.01,-0.04,49.400000000000006,0.04123105625617661,0
248,-0.1,0.0,49.6,0.1,0
249,-0.03,0.04,49.800000000000004,0.05,0
250,0.03,0.01,50.0,0.03162277660168379,0
251,0.04,-0.02,50.2,0.044721359549995794,0
252,0.06,-0.04,50.400000000000006,0.07211102550927978,0
253,-0.02,-0.1,50.6,0.10198039027185571,0
254,0.02,0.01,50.800000000000004,0.022360679774997897,0
255,-0.02,0.02,51.0,0.0282842712474619,0
256,0.04,0.04,51.2,0.0565685424949238,0
257,0.0,-0.02,51.400000000000006,0.02,0
258,0.04,0.0,51.6,0.04,0
259,0.04,0.0,51.800000000000004,0.04,0
260,-0.02,-0.05,52.0,0.05385164807134505,0
261,-0.02,0.08,52.2,0.08246211251235322,0
262,-0.02,-0.06,52.400000000000006,0.06324555320336758,0
263,-0.02,0.04,52.6,0.044721359549995794,0
264,-0.02,0.05,52.800000000000004,0.05385164807134505,0
265,0.0,0.03,53.0,0.03,0
266,-0.02,0.01,53.2,0.022360679774997897,0
267,0.02,0.06,53.400000000000006,0.06324555320336758,0
268,-0.01,0.04,53.6,0.04123105625617661,0
269,0.0,0.02,53.800000000000004,0.02,0
270,-0.03,0.05,54.0,0.05830951894845301,0
271,-0.03,0.04,54.2,0.05,0
272,0.07,0.11,54.400000000000006,0.130384048104053,0
273,0.0,-0.05,54.6,0.05,0
274,-0.03,-0.02,54.800000000000004,0.03605551275463989,0
275,0.13,0.08,55.0,0.15264337522473748,0
276,0.07,0.02,55.2,0.07280109889280519,0
277,0.16,-0.01,55.400000000000006,0.16031219541881397,0
278,0.07,0.0,55.6,0.07,0
279,-0.14,0.01,55.800000000000004,0.14035668847618202,0
280,0.02,-0.05,56.0,0.05385164807134505,0
281,0.02,-0.02,56.2,0.0282842712474619,0
282,-0.04,0.03,56.400000000000006,0.05,0
283,0.05,-0.02,56.6,0.05385164807134505,0
284,0.01,0.03,56.800000000000004,0.03162277660168379,0
285,-0.13,0.03,57.0,0.13341664064126335,0
286,-0.07,-0.01,57.2,0.07071067811865477,0
287,-0.01,0.08,57.400000000000006,0.0806225774829855,0
288,-0.04,0.04,57.6,0.0565685424949238,0
289,0.01,-0.01,57.800000000000004,0.01414213562373095,0
290,0.07,0.04,58.00000000000001,0.0806225774829855,0
291,0.03,-0.01,58.2,0.03162277660168379,0
292,-0.02,-0.09,58.400000000000006,0.09219544457292887,0
293,-0.14,-0.05,58.6,0.14866068747318506,0
294,0.0,-0.09,58.800000000000004,0.09,0
295,-0.14,0.05,59.00000000000001,0.14866068747318506,0
296,0.03,-0.1,59.2,0.1044030650891055,0
297,0.23,-0.12,59.400000000000006,0.25942243542145693,0
298,0.09,-0.34,59.6,0.3517101079013795,0
299,-0.32,0.11,59.800000000000004,0.3383784863137726,0
300,-0.17,0.24,60.00000000000001,0.29410882339705485,0
301,-0.05,-0.01,60.2,0.050990195135927854,0
302,0.02,-0.03,60.400000000000006,0.03605551275463989,0
303,0.0,-0.07,60.6,0.07,0
304,-0.04,0.09,60.800000000000004,0.09848857801796104,0
305,0.02,0.11,61.00000000000001,0.11180339887498948,0
306,-0.02,0.12,61.2,0.1216552506059644,0
307,0.02,0.05,61.400000000000006,0.05385164807134505,0
308,-0.12,-0.04,61.6,0.12649110640673517,0
309,-0.07,0.03,61.800000000000004,0.07615773105863909,0
310,0.06,-0.02,62.00000000000001,0.06324555320336758,0
311,-0.04,-0.01,62.2,0.04123105625617661,0
312,0.02,0.09,62.400000000000006,0.09219544457292887,0
313,-0.11,-0.04,62.6,0.11704699910719625,0
314,-0.06,-0.03,62.800000000000004,0.0670820393249937,0
315,0.01,-0.11,63.00000000000001,0.11045361017187261,0
316,-0.1,-0.16,63.2,0.18867962264113208,0
317,0.05,-0.02,63.400000000000006,0.05385164807134505,0
318,-0.13,0.02,63.6,0.13152946437965907,0
319,-0.15,-0.03,63.800000000000004,0.15297058540778355,0
320,-0.22,-0.03,64.0,0.22203603311174516,0
321,-0.48,0.05,64.2,0.48259714048054614,0
322,0.09,0.21,64.4,0.22847319317591724,0
323,0.06,0.03,64.60000000000001,0.0670820393249937,0
324,0.08,0.21,64.8,0.22472205054244232,0
325,-0.11,-0.16,65.0,0.194164878389476,0
326,0.07,-0.13,65.2,0.147648230602334,0
327,0.08,0.06,65.4,0.1,0
328,0.23,-0.03,65.60000000000001,0.23194827009486405,0
329,-0.06,0.04,65.8,0.07211102550927978,0
330,-0.15,0.07,66.0,0.16552945357246848,0
331,0.12,-0.07,66.2,0.13892443989449804,0
332,0.0,0.02,66.4,0.02,0
333,-0.24,-0.04,66.60000000000001,0.2433105012119288,0
334,-0.25,0.4,66.8,0.47169905660283024,0
335,-0.37,0.36,67.0,0.5162363799656122,0
336,-0.25,0.7,67.2,0.7433034373659253,0
337,0.28,0.89,67.4,0.9330058949438638,0
338,0.08,0.29,67.60000000000001,0.30083217912982646,0
339,0.13,0.26,67.8,0.2906888370749727,0
340,0.1,0.07,68.0,0.12206555615733704,0
341,0.1,0.01,68.2,0.1004987562112089,0
342,0.0,0.1,68.4,0.1,0
343,0.05,0.11,68.60000000000001,0.12083045973594572,0
344,-0.08,-0.04,68.80000000000001,0.08944271909999159,0
345,-0.4,0.15,69.0,0.4272001872658766,0
346,0.63,0.12,69.2,0.6413267497929586,0
347,-0.29,0.3,69.4,0.41725292090050126,0
348,-0.21,0.11,69.60000000000001,0.23706539182259395,0
349,-0.39,0.33,69.80000000000001,0.5108815909777921,0
350,-0.16,0.18,70.0,0.2408318915758459,0
351,-0.04,0.02,70.2,0.044721359549995794,0
352,0.05,-0.05,70.4,0.07071067811865477,0
353,0.11,0.11,70.60000000000001,0.15556349186104046,0
354,0.05,-0.04,70.80000000000001,0.06403124237432849,0
355,-0.22,0.01,71.0,0.2202271554554524,0
356,0.01,-0.05,71.2,0.050990195135927854,0
357,-0.04,0.05,71.4,0.06403124237432849,0
358,-0.22,0.0,71.60000000000001,0.22,0
359,-0.04,-0.03,71.80000000000001,0.05,0
360,-0.08,0.08,72.0,0.1131370849898476,0
361,-0.07,0.09,72.2,0.1140175425099138,0
362,-0.05,0.05,72.4,0.07071067811865477,0
363,-0.05,-0.02,72.60000000000001,0.05385164807134505,0
364,0.01,-0.01,72.80000000000001,0.01414213562373095,0
365,-0.1,-0.01,73.0,0.1004987562112089,0
366,-0.08,0.03,73.2,0.08544003745317531,0
367,-0.1,0.02,73.4,0.10198039027185571,0
368,-0.03,-0.04,73.60000000000001,0.05,0
369,-0.1,0.02,73.80000000000001,0.10198039027185571,0
370,0.06,-0.01,74.0,0.0608276253029822,0
371,0.01,-0.05,74.2,0.050990195135927854,0
372,-0.08,-0.05,74.4,0.09433981132056604,0
373,0.02,0.0,74.60000000000001,0.02,0
374,0.06,0.0,74.80000000000001,0.06,0
375,-0.03,0.0,75.0,0.03,0
376,0.01,-0.04,75.2,0.04123105625617661,0
377,0.02,0.03,75.4,0.03605551275463989,0
378,-0.03,0.04,75.60000000000001,0.05,0
379,-0.02,0.02,75.80000000000001,0.0282842712474619,0
380,0.05,0.0,76.0,0.05,0
381,0.0,0.03,76.2,0.03,0
382,-0.02,-0.02,76.4,0.0282842712474619,0
383,0.09,-0.01,76.60000000000001,0.09055385138137416,0
384,-0.05,0.05,76.80000000000001,0.07071067811865477,0
385,0.05,0.02,77.0,0.05385164807134505,0
386,0.01,-0.03,77.2,0.03162277660168379,0
387,-0.07,-0.05,77.4,0.08602325267042628,0
388,-0.02,-0.11,77.60000000000001,0.11180339887498948,0
389,-0.02,-0.2,77.80000000000001,0.2009975124224178,0
390,-0.26,-0.33,78.0,0.42011903075200013,0
391,-0.08,-0.03,78.2,0.08544003745317531,0
392,-0.12,0.13,78.4,0.17691806012954134,0
393,0.18,-0.12,78.60000000000001,0.21633307652783934,0
394,0.09,0.02,78.80000000000001,0.09219544457292887,0
395,0.05,-0.12,79.0,0.13,0
396,-0.17,-0.1,79.2,0.1972308292331602,0
397,-0.01,0.07,79.4,0.07071067811865477,0
398,0.05,0.07,79.60000000000001,0.08602325267042628,0
399,-0.1,-0.22,79.80000000000001,0.24166091947189144,0
400,0.21,-0.58,80.0,0.6168468205316454,0
401,-0.01,-0.54,80.2,0.540092584655631,0
402,-0.18,-0.82,80.4,0.8395236744726142,0
403,0.84,-0.04,80.60000000000001,0.8409518416651455,0
404,-0.21,-0.06,80.80000000000001,0.21840329667841554,0
405,0.25,-0.09,81.0,0.26570660511172844,0
406,0.15,-0.25,81.2,0.291547594742265,0
407,0.15,-0.32,81.4,0.35341194094144585,0
408,0.25,-0.27,81.60000000000001,0.367967389859482,0
409,0.1,-0.12,81.80000000000001,0.1562049935181331,0
410,0.39,-0.33,82.0,0.5108815909777921,0
411,0.05,0.23,82.2,0.2353720459187964,0
412,0.25,0.01,82.4,0.2501999200639361,0
413,0.1,-0.1,82.60000000000001,0.14142135623730953,0
414,0.06,0.02,82.80000000000001,0.06324555320336758,0
415,0.34,0.31,83.0,0.46010868281309364,0
416,0.19,0.32,83.2,0.3721558813185679,0
417,0.3,0.32,83.4,0.4386342439892262,0
418,0.14,0.43,83.60000000000001,0.4522167621838005,0
419,0.03,0.28,83.80000000000001,0.2816025568065745,0
420,0.14,0.56,84.0,0.5772347875864725,0
421,0.14,0.3,84.2,0.33105890714493696,0
422,0.05,0.35,84.4,0.35355339059327373,0
423,0.26,0.08,84.60000000000001,0.2720294101747089,0
424,0.27,0.27,84.80000000000001,0.3818376618407357,0
425,0.3,0.15,85.0,0.33541019662496846,0
426,0.01,-0.05,85.2,0.050990195135927854,0
427,0.11,0.0,85.4,0.11,0
428,-0.03,-0.08,85.60000000000001,0.08544003745317531,0
429,-0.01,0.08,85.80000000000001,0.0806225774829855,0
430,-0.09,0.16,86.0,0.1835755975068582,0
431,0.12,0.12,86.2,0.16970562748477142,0
432,0.21,0.04,86.4,0.21377558326431947,0
433,0.16,0.27,86.60000000000001,0.3138470965295043,0
434,-0.09,0.08,86.80000000000001,0.12041594578792295,0
435,0.12,-0.01,87.0,0.12041594578792295,0
436,0.25,0.17,87.2,0.3023243291566195,0
437,0.02,0.0,87.4,0.02,0
438,-0.1,-0.06,87.60000000000001,0.11661903789690602,0
439,0.09,0.16,87.80000000000001,0.1835755975068582,0
440,-0.03,-0.03,88.0,0.042426406871192854,0
441,-0.12,-0.25,88.2,0.27730849247724093,0
442,-0.03,-0.02,88.4,0.03605551275463989,0
443,0.13,0.1,88.60000000000001,0.16401219466856726,0
444,0.13,0.17,88.80000000000001,0.21400934559032697,0
445,0.04,-0.13,89.0,0.13601470508735444,0
446,-0.09,-0.26,89.2,0.2751363298439521,0
447,0.06,0.1,89.4,0.11661903789690602,0
448,0.06,0.01,89.60000000000001,0.0608276253029822,0
449,0.07,-0.04,89.80000000000001,0.0806225774829855,0
450,0.02,0.04,90.0,0.044721359549995794,0
451,0.12,-0.08,90.2,0.14422205101855956,0
452,0.09,-0.04,90.4,0.09848857801796104,0
453,0.09,0.03,90.60000000000001,0.09486832980505137,0
454,0.0,0.02,90.80000000000001,0.02,0
455,-0.04,0.2,91.0,0.20396078054371142,0
456,0.07,0.09,91.2,0.1140175425099138,0
457,0.11,0.07,91.4,0.130384048104053,0
458,0.01,-0.03,91.60000000000001,0.03162277660168379,0
459,-0.19,0.06,91.80000000000001,0.19924858845171275,0
460,-0.05,-0.01,92.0,0.050990195135927854,0
461,0.01,-0.01,92.2,0.01414213562373095,0
462,-0.05,-0.04,92.4,0.06403124237432849,0
463,-0.1,-0.13,92.60000000000001,0.16401219466856726,0
464,0.08,0.29,92.80000000000001,0.30083217912982646,0
465,-0.01,0.0,93.0,0.01,0
466,-0.04,-0.16,93.2,0.16492422502470644,0
467,0.21,-0.14,93.4,0.25238858928247926,0
468,0.19,0.15,93.60000000000001,0.2420743687382041,0
469,-0.07,0.02,93.80000000000001,0.07280109889280519,0
470,0.0,0.14,94.0,0.14,0
471,-0.12,0.05,94.2,0.13,0
472,-0.19,0.09,94.4,0.2102379604162864,0
473,-0.09,0.02,94.60000000000001,0.09219544457292887,0
474,-0.29,0.17,94.80000000000001,0.3361547262794322,0
475,-0.32,-0.14,95.0,0.3492849839314596,0
476,-0.13,-0.01,95.2,0.130384048104053,0
477,-0.47,-0.34,95.4,0.5800862004909271,0
478,-0.24,-0.09,95.60000000000001,0.2563201123595259,0
479,-0.39,-0.01,95.80000000000001,0.3901281840626232,0
480,-0.17,-0.02,96.0,0.17117242768623692,0
481,-0.09,-0.06,96.2,0.10816653826391967,0
482,-0.04,0.05,96.4,0.06403124237432849,0
483,-0.04,0.03,96.60000000000001,0.05,0
484,-0.03,-0.07,96.80000000000001,0.07615773105863909,0
485,0.03,-0.08,97.0,0.08544003745317531,0
486,-0.14,0.09,97.2,0.1664331697709324,0
487,0.04,-0.01,97.4,0.04123105625617661,0
488,-0.05,-0.04,97.60000000000001,0.06403124237432849,0
489,-0.01,0.02,97.80000000000001,0.022360679774997897,0
490,0.03,-0.03,98.0,0.042426406871192854,0
491,-0.01,0.05,98.2,0.050990195135927854,0
492,-0.04,-0.11,98.4,0.11704699910719625,0
493,-0.1,-0.03,98.60000000000001,0.1044030650891055,0
494,-0.14,-0.03,98.80000000000001,0.14317821063276354,0
495,0.01,-0.05,99.0,0.050990195135927854,0
496,0.03,0.03,99.2,0.042426406871192854,0
497,0.14,0.14,99.4,0.19798989873223333,0
498,0.05,0.03,99.60000000000001,0.05830951894845301,0
499,0.04,-0.03,99.80000000000001,0.05,0
500,-0.13,0.06,100.0,0.14317821063276354,0
501,0.2,-0.12,100.2,0.23323807579381203,0
502,0.08,0.01,100.4,0.0806225774829855,0
503,0.0,0.04,100.60000000000001,0.04,0
504,0.01,-0.03,100.80000000000001,0.03162277660168379,0
505,0.06,-0.02,101.0,0.06324555320336758,0
506,0.16,0.17,101.2,0.23345235059857505,0
507,0.08,0.18,101.4,0.19697715603592209,0
508,-0.05,0.08,101.60000000000001,0.09433981132056604,0
509,0.1,0.13,101.80000000000001,0.16401219466856726,0
510,0.2,0.02,102.0,0.2009975124224178,0
511,0.09,0.08,102.2,0.12041594578792295,0
512,0.01,0.01,102.4,0.01414213562373095,0
513,0.05,0.06,102.60000000000001,0.07810249675906655,0
514,0.11,0.06,102.80000000000001,0.12529964086141668,0
515,0.02,0.09,103.0,0.09219544457292887,0
516,-0.03,-0.08,103.2,0.08544003745317531,0
517,0.0,0.23,103.4,0.23,0
518,-0.16,0.03,103.60000000000001,0.16278820596099708,0
519,-0.14,0.06,103.80000000000001,0.15231546211727817,0
520,0.06,0.0,104.0,0.06,0
521,0.06,0.11,104.2,0.12529964086141668,0
522,0.04,-0.03,104.4,0.05,0
523,0.15,0.06,104.60000000000001,0.16155494421403513,0
524,-0.06,-0.25,104.80000000000001,0.2570992026436488,0
525,0.19,0.31,105.0,0.36359317925395684,0
526,0.23,0.33,105.2,0.40224370722237535,0
527,0.0,0.1,105.4,0.1,0
528,-0.18,0.18,105.60000000000001,0.2545584412271571,0
529,0.0,0.12,105.80000000000001,0.12,0
530,0.07,-0.26,106.0,0.26925824035672524,0
531,-0.11,-0.34,106.2,0.3573513677041128,0
532,0.04,-0.3,106.4,0.3026549190084311,0
533,-0.6,-0.59,106.60000000000001,0.841486779456457,0
534,0.03,-0.29,106.80000000000001,0.291547594742265,0
535,0.59,0.08,107.0,0.5953990258641678,0
536,1.08,0.57,107.2,1.2211879462228572,0
537,0.11,0.25,107.4,0.27313000567495327,0
538,0.1,-0.03,107.60000000000001,0.1044030650891055,0
539,0.0,0.14,107.80000000000001,0.14,0
540,-0.45,-0.52,108.0,0.6876772498781678,0
541,-0.04,-0.55,108.2,0.5514526271584895,0
542,-0.19,-0.19,108.4,0.26870057685088805,0
543,-0.15,-0.03,108.60000000000001,0.15297058540778355,0
544,-0.36,-0.03,108.80000000000001,0.36124783736376886,0
545,-0.02,0.1,109.0,0.10198039027185571,0
546,0.22,0.11,109.2,0.24596747752497686,0
547,0.29,-0.06,109.4,0.29614185789921693,0
548,-0.07,-0.03,109.60000000000001,0.07615773105863909,0
549,0.07,0.0,109.80000000000001,0.07,0
550,0.05,0.13,110.0,0.1392838827718412,0
551,0.38,0.07,110.2,0.38639358172723315,0
552,0.14,-0.02,110.4,0.14142135623730953,0
553,-0.11,-0.08,110.60000000000001,0.13601470508735444,0
554,0.13,-0.33,110.80000000000001,0.35468295701936403,0
555,-0.15,-0.34,111.0,0.371618083521241,0
556,-0.13,-0.03,111.2,0.13341664064126335,0
557,-0.27,-0.19,111.4,0.3301514803843836,0
558,-0.32,0.02,111.60000000000001,0.32062439083762795,0
559,-0.15,0.09,111.80000000000001,0.17492855684535902,0
560,-0.31,-0.03,112.0,0.31144823004794875,0
561,-0.03,0.04,112.2,0.05,0
562,0.01,-0.33,112.4,0.3301514803843836,0
563,-0.2,-0.2,112.60000000000001,0.28284271247461906,0
564,0.33,0.12,112.80000000000001,0.35114099732158877,0
565,0.54,0.35,113.0,0.6435060217278468,0
566,0.35,0.46,113.2,0.578013840664737,0
567,0.3,0.63,113.4,0.6977822009767805,0
568,0.1,0.27,113.60000000000001,0.2879236009777594,0
569,0.41,0.57,113.80000000000001,0.7021395872616782,0
570,0.07,0.38,114.0,0.38639358172723315,0
571,0.08,0.03,114.2,0.08544003745317531,0
572,-0.29,-0.06,114.4,0.29614185789921693,0
573,-0.34,-0.17,114.60000000000001,0.38013155617496425,0
574,-0.47,-0.23,114.80000000000001,0.5232590180780452,0
575,-0.04,0.07,115.00000000000001,0.0806225774829855,0
576,-0.08,-0.19,115.2,0.20615528128088303,0
577,0.05,0.27,115.4,0.2745906043549196,0
578,0.16,0.54,115.60000000000001,0.563205113613149,0
579,0.05,0.33,115.80000000000001,0.33376638536557274,0
580,0.31,0.28,116.00000000000001,0.41773197148410846,0
581,-0.02,-0.08,116.2,0.08246211251235322,0
582,0.04,-0.24,116.4,0.2433105012119288,0
583,-0.23,-0.41,116.60000000000001,0.4701063709417263,0
584,-0.14,-0.04,116.80000000000001,0.14560219778561037,0
585,-0.32,-0.08,117.00000000000001,0.3298484500494129,0
586,-0.05,0.12,117.2,0.13,0
587,-0.02,0.17,117.4,0.17117242768623692,0
588,0.2,0.34,117.60000000000001,0.3944616584663204,0
589,0.22,0.21,117.80000000000001,0.30413812651491096,0
590,0.15,0.1,118.00000000000001,0.18027756377319948,0
591,-0.02,-0.23,118.2,0.2308679276123039,0
592,-0.26,-0.21,118.4,0.33421549934136807,0
593,-0.08,-0.2,118.60000000000001,0.2154065922853802,0
594,-0.03,-0.19,118.80000000000001,0.19235384061671346,0
595,-0.29,-0.26,119.00000000000001,0.3894868418830089,0
596,-0.39,-0.42,119.2,0.573149195236284,0
597,-0.53,-0.62,119.4,0.8156592425762121,0
598,-0.78,-0.8,119.60000000000001,1.1173182178770737,0
599,-0.86,-0.64,119.80000000000001,1.0720074626605918,0
600,-0.76,-0.4,120.00000000000001,0.8588364221433555,0
601,-0.41,-0.33,120.2,0.5263078946776306,0
602,-1.06,-1.07,120.4,1.5061540425866142,0
603,-1.45,-1.4,120.60000000000001,2.0155644370746373,0
604,-1.81,-1.82,120.80000000000001,2.5668073554515147,0
605,-2.12,-2.14,121.00000000000001,3.0123080851732285,0
606,-2.36,-2.39,121.2,3.35882419903156,1
607,-2.42,-2.87,121.4,3.7541044204976504,1
608,-2.74,-2.96,121.60000000000001,4.0335096380199715,1
609,-2.58,-2.98,121.80000000000001,3.941674770957137,1
610,-2.73,-3.23,122.00000000000001,4.229160673230564,1
611,-2.71,-3.4,122.2,4.347884543085292,1
612,-2.37,-3.6,122.4,4.310092806425402,1
613,-2.28,-3.67,122.60000000000001,4.320567092408125,1
614,-2.57,-4.09,122.80000000000001,4.830424411995286,1
615,-2.64,-4.38,123.00000000000001,5.1140981609664085,1
616,-2.78,-4.83,123.2,5.572907679120479,1
617,-3.01,-5.18,123.4,5.991034969018291,1
618,-3.09,-5.42,123.60000000000001,6.238950232210544,1
619,-3.28,-5.93,123.80000000000001,6.776673225115698,1
620,-3.29,-6.34,124.00000000000001,7.142807571256557,1
621,-3.53,-6.6,124.2,7.484711083268345,1
622,-3.57,-6.85,124.4,7.724467619195512,1
623,-3.49,-7.02,124.60000000000001,7.839674738150811,1
624,-3.69,-7.51,124.80000000000001,8.367568344507262,1
625,-3.78,-7.56,125.00000000000001,8.452336954949205,1
626,-3.91,-7.42,125.2,8.38716280991373,1
627,-4.02,-7.56,125.4,8.562359487898181,1
628,-4.03,-7.75,125.60000000000001,8.735181738235331,1
629,-4.08,-7.94,125.80000000000001,8.926925562588723,1
630,-4.16,-8.0,126.00000000000001,9.016961794307438,1
631,-4.24,-8.11,126.2,9.151486218095943,1
632,-4.38,-8.09,126.4,9.199592382274336,1
633,-4.3,-8.29,126.60000000000001,9.33884896547749,1
634,-4.35,-8.03,126.80000000000001,9.13254619479146,1
635,-4.38,-8.14,127.00000000000001,9.243592375261903,1
636,-4.62,-8.12,127.2,9.342312347593609,1
637,-4.6,-8.15,127.4,9.358552238460819,1
638,-4.58,-8.15,127.60000000000001,9.34873788273048,1
639,-4.72,-8.21,127.80000000000001,9.47008447691994,1
640,-4.74,-8.19,128.0,9.46275329911966,1
641,-4.74,-8.21,128.20000000000002,9.480068565152893,1
642,-4.87,-8.43,128.4,9.735594486213978,1
643,-4.79,-8.44,128.6,9.704519565645688,1
644,-4.83,-8.37,128.8,9.663632857264394,1
645,-4.84,-8.41,129.0,9.7032829496001,1
646,-4.8,-8.22,129.20000000000002,9.518844467686192,1
647,-4.76,-8.16,129.4,9.446861912825867,1
648,-4.72,-8.13,129.6,9.400813794560554,1
649,-4.58,-8.0,129.8,9.21826447874002,1
650,-4.63,-8.1,130.0,9.329892818248235,1
651,-4.74,-8.17,130.20000000000002,9.445448639424175,1
652,-4.41,-7.99,130.4,9.126236902469714,1
653,-4.41,-8.1,130.6,9.22269483394089,1
654,-4.58,-8.05,130.8,9.26168991059407,1
655,-4.43,-7.8,131.0,8.970222962669324,1
656,-4.5,-8.01,131.20000000000002,9.187496938775,1
657,-4.56,-7.73,131.4,8.974770192043916,1
658,-4.24,-7.57,131.6,8.676548853086693,1
659,-4.35,-7.46,131.8,8.635629681731379,1
660,-4.14,-7.83,132.0,8.85711578336876,1
661,-4.01,-7.85,132.20000000000002,8.81490782708475,1
662,-3.99,-7.74,132.4,8.707910197056467,1
663,-3.9,-7.81,132.6,8.729610529685731,1
664,-3.94,-7.86,132.8,8.79222383700506,1
665,-3.69,-7.71,133.0,8.547525957843005,1
666,-3.94,-7.8,133.20000000000002,8.738626894426835,1
667,-3.92,-7.58,133.4,8.533627599092897,1
668,-3.76,-7.77,133.6,8.631946478054646,1
669,-3.79,-7.82,133.8,8.690023014929247,1
670,-3.93,-7.83,134.0,8.76092460873851,1
671,-3.86,-7.85,134.20000000000002,8.747691123948078,1
672,-3.71,-7.91,134.4,8.736830088767894,1
673,-3.76,-7.52,134.6,8.407615595399209,1
674,-3.99,-7.75,134.8,8.716799871512482,1
675,-3.89,-7.8,135.0,8.716197565452495,1
676,-3.92,-7.88,135.20000000000002,8.801181738834849,1
677,-3.93,-7.93,135.4,8.850412419768922,1
678,-4.01,-7.54,135.6,8.54000585479893,1
679,-3.89,-7.44,135.8,8.395576216079514,1
680,-4.19,-7.38,136.0,8.48648926235107,1
681,-4.35,-7.44,136.20000000000002,8.618358312346963,1
682,-4.61,-7.34,136.4,8.667623665111448,1
683,-4.72,-7.14,136.6,8.559088736541993,1
684,-4.74,-7.05,136.8,8.49529869986924,1
685,-4.95,-7.01,137.0,8.581526670703763,1
686,-5.2,-6.94,137.20000000000002,8.672000922509177,1
687,-5.37,-6.6,137.4,8.508636788581352,1
688,-5.46,-6.5,137.60000000000002,8.488910413003543,1
689,-5.57,-6.43,137.8,8.507044140005387,1
690,-5.68,-6.35,138.0,8.519677223932842,1
691,-6.16,-6.37,138.20000000000002,8.861292230820514,1
692,-6.19,-6.39,138.4,8.896527412423344,1
693,-6.42,-6.48,138.60000000000002,9.121776142835342,1
694,-6.47,-5.76,138.8,8.662476551194814,1
695,-6.69,-5.94,139.0,8.946490932203531,1
696,-6.46,-5.55,139.20000000000002,8.516695368510018,1
697,-6.47,-5.18,139.4,8.288142131985913,1
698,-6.61,-5.25,139.60000000000002,8.441243984153047,1
699,-6.8,-5.13,139.8,8.518033810686596,1
700,-6.95,-5.14,140.0,8.64419458364977,1
701,-6.74,-4.82,140.20000000000002,8.286132994346639,1
702,-6.48,-4.84,140.4,8.088015825899452,1
703,-6.88,-5.01,140.60000000000002,8.510846021401163,1
704,-6.94,-4.92,140.8,8.507055894961546,1
705,-6.96,-4.99,141.0,8.563976879931426,1
706,-7.02,-4.82,141.20000000000002,8.51544479167119,1
707,-7.04,-4.99,141.4,8.62911930616329,1
708,-7.04,-4.99,141.60000000000002,8.62911930616329,1
709,-7.02,-4.64,141.8,8.41486779456457,1
710,-6.92,-4.62,142.0,8.320504792378886,1
711,-7.05,-4.56,142.20000000000002,8.396195567041064,1
712,-6.93,-4.66,142.4,8.351077774754586,1
713,-7.1,-4.72,142.60000000000002,8.52574923393833,1
714,-7.07,-4.8,142.8,8.545460783363295,1
715,-7.14,-4.69,143.0,8.54258157701757,1
716,-7.4,-4.98,143.20000000000002,8.919663670789388,1
717,-7.27,-4.6,143.4,8.603075031638395,1
718,-7.13,-4.3,143.60000000000002,8.326277679731803,1
719,-7.47,-4.65,143.8,8.799056767631404,1
720,-7.81,-4.75,144.0,9.141039328216458,1
721,-7.58,-4.1,144.20000000000002,8.617795541784453,1
722,-7.68,-4.32,144.4,8.811628680329193,1
723,-7.67,-4.43,144.60000000000002,8.857414972778457,1
724,-7.54,-3.96,144.8,8.516642530950797,1
725,-7.66,-4.07,145.0,8.674128198268688,1
726,-7.56,-4.06,145.20000000000002,8.581212035604294,1
727,-7.5,-3.76,145.4,8.389731819313415,1
728,-7.56,-4.06,145.60000000000002,8.581212035604294,1
729,-7.7,-4.46,145.8,8.898404351342998,1
730,-7.36,-4.38,146.0,8.564694974136557,1
731,-7.3,-4.39,146.20000000000002,8.518339039977219,1
732,-7.37,-4.6,146.4,8.687744241171007,1
733,-7.28,-4.49,146.60000000000002,8.553274226867744,1
734,-7.1,-4.47,146.8,8.389928485988422,1
735,-7.25,-4.65,147.0,8.61307146144742,1
736,-7.19,-5.12,147.20000000000002,8.826692472268421,1
737,-7.12,-5.09,147.4,8.752285415821401,1
738,-6.94,-5.19,147.60000000000002,8.666008308327427,1
739,-6.87,-5.16,147.8,8.592002094971813,1
740,-7.04,-5.39,148.0,8.86643671381012,1
741,-7.12,-5.75,148.20000000000002,9.15187958836872,1
742,-6.94,-5.71,148.4,8.987085178187643,1
743,-6.87,-5.95,148.60000000000002,9.088421205027856,1
744,-7.04,-6.06,148.8,9.288982721482476,1
745,-6.88,-6.22,149.0,9.274847707644584,1
746,-7.0,-6.4,149.20000000000002,9.484724561103501,1
747,-6.99,-6.53,149.4,9.56561550554903,1
748,-6.96,-6.7,149.60000000000002,9.660828121853736,1
749,-7.13,-6.74,149.8,9.81144739577194,1
750,-7.09,-6.72,150.0,9.768648831849776,1
751,-7.22,-7.03,150.20000000000002,10.07716726069385,1
752,-7.19,-6.93,150.4,9.98604025627776,1
753,-7.33,-7.17,150.60000000000002,10.253672512812178,1
754,-7.11,-7.24,150.8,10.147398681435552,1
755,-7.42,-7.38,151.0,10.465218583479276,1
756,-7.13,-7.38,151.20000000000002,10.261642168775913,1
757,-7.23,-7.38,151.4,10.33137454552878,1
758,-7.21,-7.59,151.60000000000002,10.468629327662718,1
759,-7.2,-7.73,151.8,10.563754067565187,1
760,-7.39,-8.11,152.0,10.971973386770495,1
761,-7.47,-8.3,152.20000000000002,11.16650795907118,1
762,-7.44,-8.41,152.4,11.22861077783,1
763,-7.5,-8.54,152.60000000000002,11.365808374242459,1
764,-7.35,-8.42,152.8,11.17671239676498,1
765,-7.32,-8.64,153.0,11.323956905605039,1
766,-7.08,-8.65,153.20000000000002,11.178054392424471,1
767,-6.91,-8.85,153.4,11.22811649387376,1
768,-6.83,-8.95,153.60000000000002,11.258392425208848,1
769,-6.72,-9.29,153.8,11.465709746893124,1
770,-6.53,-9.54,154.0,11.560817445146341,1
771,-6.45,-9.6,154.20000000000002,11.56557391572074,1
772,-6.36,-9.82,154.4,11.69965811466301,1
773,-6.05,-9.78,154.60000000000002,11.500039130368208,1
774,-6.02,-9.92,154.8,11.603740776146285,1
775,-6.07,-10.3,155.0,11.955538465497906,1
776,-6.0,-10.24,155.20000000000002,11.868344450680558,1
777,-5.96,-10.12,155.4,11.744615787670535,1
778,-5.97,-10.35,155.60000000000002,11.948363904736079,1
779,-5.93,-10.29,155.8,11.87640518001975,1
780,-6.06,-10.52,156.0,12.140593066238567,1
781,-6.27,-10.65,156.20000000000002,12.358616427416138,1
782,-6.46,-10.98,156.4,12.73938774039004,1
783,-6.67,-11.42,156.60000000000002,13.225176747401148,1
784,-6.88,-11.48,156.8,13.383751342579552,1
785,-6.98,-11.86,157.0,13.761540611428648,1
786,-7.17,-12.35,157.20000000000002,14.280455174818481,1
787,-7.23,-12.53,157.4,14.466298766443336,1
788,-7.3,-12.52,157.60000000000002,14.492770611584245,1
789,-7.51,-12.8,157.8,14.840488536433025,1
790,-7.55,-12.93,158.0,14.972888832820471,1
791,-7.46,-12.92,158.20000000000002,14.91904822701502,1
792,-7.42,-13.13,158.4,15.08155495961872,1
793,-7.46,-13.13,158.60000000000002,15.101274780626966,1
794,-7.37,-13.12,158.8,15.048298907185488,1
795,-7.22,-13.01,159.0,14.879129678848827,1
796,-7.09,-13.06,159.20000000000002,14.860407127666456,1
797,-7.12,-13.09,159.4,14.901090564116439,1
798,-7.12,-13.12,159.60000000000002,14.927451222496089,1
799,-6.88,-12.94,159.8,14.65530620628583,1
800,-6.8,-12.72,160.0,14.423536320888855,1
801,-7.06,-12.84,160.20000000000002,14.652958745591281,1
802,-6.92,-12.69,160.4,14.454151652725939,1
803,-6.8,-12.48,160.60000000000002,14.212332672717734,1
804,-6.81,-12.42,160.8,14.164480223432133,1
805,-6.69,-12.29,161.0,13.992862466271866,1
806,-6.66,-12.12,161.20000000000002,13.82931668593933,1
807,-6.91,-12.29,161.4,14.099368780197217,1
808,-6.68,-11.92,161.60000000000002,13.66414285639608,1
809,-6.61,-11.71,161.8,13.446791438852618,1
810,-6.62,-11.81,162.0,13.538851502250846,1
811,-6.59,-11.83,162.20000000000002,13.541676410252904,1
812,-6.73,-11.8,162.4,13.584288718957648,1
813,-6.79,-11.82,162.60000000000002,13.631452600511803,1
814,-6.79,-11.88,162.8,13.683511976097366,1
815,-6.99,-12.02,163.0,13.90469345221246,1
816,-7.02,-11.96,163.20000000000002,13.86802076721837,1
817,-7.07,-12.1,163.4,14.014096474621544,1
818,-7.11,-12.07,163.60000000000002,14.008461728541075,1
819,-7.2,-12.37,163.8,14.312822922121269,1
820,-7.14,-12.4,164.0,14.308724611229334,1
821,-7.33,-12.7,164.20000000000002,14.663522769102928,1
822,-7.21,-12.81,164.4,14.69966666288729,1
823,-7.02,-12.98,164.60000000000002,14.756720502875968,1
824,-6.72,-12.93,164.8,14.572003980235525,1
825,-6.58,-13.6,165.0,15.10815673733894,1
826,-6.23,-13.74,165.20000000000002,15.086434303704769,1
827,-5.76,-13.87,165.4,15.018471959557003,1
828,-5.35,-14.13,165.60000000000002,15.108917896394832,1
829,-4.83,-14.37,165.8,15.160006596304633,1
830,-4.15,-14.5,166.0,15.082191485324671,1
831,-3.43,-14.9,166.20000000000002,15.289699146811229,1
832,-2.71,-15.22,166.4,15.459382264502032,1
833,-2.07,-15.28,166.60000000000002,15.419575221127202,1
834,-0.91,-15.45,166.8,15.476776150090172,1
835,-0.09,-15.47,167.0,15.47026179481136,1
836,0.63,-15.54,167.20000000000002,15.55276502747984,1
837,1.5,-15.52,167.4,15.592318621680356,1
838,2.49,-15.36,167.60000000000002,15.560517343584692,1
839,3.37,-15.15,167.8,15.520289945745215,1
840,4.31,-14.87,168.0,15.482021831789282,1
841,5.15,-14.52,168.20000000000002,15.40626171399149,1
842,6.16,-14.16,168.4,15.44186517231646,1
843,6.85,-13.8,168.60000000000002,15.406573272470423,1
844,7.57,-13.29,168.8,15.294737657115926,1
845,8.08,-12.7,169.0,15.052454949276546,1
846,8.84,-12.36,169.20000000000002,15.195894182311221,1
847,9.43,-11.67,169.4,15.003792853808665,1
848,9.56,-10.97,169.60000000000002,14.55109961480575,1
849,10.19,-10.32,169.8,14.503051403066873,1
850,10.64,-9.91,170.0,14.540209764649203,1
851,10.92,-9.48,170.20000000000002,14.46087134304154,1
852,11.44,-9.22,170.4,14.69292346675773,1
853,11.42,-8.48,170.60000000000002,14.224162541253527,1
854,11.35,-7.67,170.8,13.698591168437723,1
855,11.47,-7.31,171.0,13.601360226095036,1
856,11.6,-6.66,171.20000000000002,13.375933612275444,1
857,11.39,-6.37,171.4,13.050249039769318,1
858,11.59,-5.73,171.60000000000002,12.929075759697596,1
859,11.41,-5.31,171.8,12.585078466183672,1
860,11.52,-4.98,172.0,12.550330672934479,1
861,11.3,-4.71,172.20000000000002,12.242307788975083,1
862,11.25,-4.41,172.4,12.083484596754365,1
863,11.18,-3.98,172.60000000000002,11.867299608588299,1
864,11.05,-3.65,172.8,11.637224755069399,1
865,11.0,-3.65,173.0,11.589758409906567,1
866,11.09,-3.35,173.20000000000002,11.58492986599401,1
867,11.23,-3.13,173.4,11.658035855151589,1
868,11.13,-2.73,173.60000000000002,11.459921465699495,1
869,11.11,-2.63,173.8,11.417048655410031,1
870,10.96,-2.54,174.0,11.250475545504733,1
871,10.89,-2.44,174.20000000000002,11.16000448028584,1
872,11.02,-2.28,174.4,11.253390600170244,1
873,10.71,-1.74,174.60000000000002,10.850423954850799,1
874,10.97,-1.73,174.8,11.105575176459796,1
875,11.03,-1.62,175.0,11.14833171375879,1
876,10.93,-1.29,175.20000000000002,11.00586207436746,1
877,11.1,-1.06,175.4,11.150497746737587,1
878,11.3,-1.07,175.60000000000002,11.350546242362084,1
879,10.97,-0.59,175.8,10.985854541181583,1
880,11.08,-0.6,176.0,11.096233595234015,1
881,11.02,-0.33,176.20000000000002,11.024939909133293,1
882,10.96,-0.08,176.4,10.96029196691402,1
883,11.16,-0.06,176.60000000000002,11.16016128915707,1
884,11.23,0.23,176.8,11.232355051368346,1
885,11.36,0.36,177.0,11.365702793932279,1
886,11.26,0.66,177.20000000000002,11.279326221011608,1
887,11.27,0.83,177.4,11.300522111831825,1
888,11.46,0.74,177.60000000000002,11.48386694454442,1
889,11.19,1.27,177.8,11.26183821585091,1
890,11.16,1.52,178.0,11.26303689064366,1
891,10.94,1.39,178.20000000000002,11.027950852266253,1
892,10.98,1.7,178.4,11.11082355183449,1
893,11.03,1.74,178.60000000000002,11.166400494340152,1
894,10.97,1.87,178.8,11.128243347447071,1
895,10.9,1.82,179.0,11.05090041580323,1
896,10.8,1.86,179.20000000000002,10.958996304406714,1
897,10.66,1.94,179.4,10.835091139441328,1
898,10.84,1.94,179.60000000000002,11.012229565351424,1
899,10.68,1.94,179.8,10.854768537375636,1
900,10.54,1.9,180.0,10.709883286012037,1
901,10.47,1.77,180.20000000000002,10.618559224301572,1
902,10.49,1.51,180.4,10.598122475231168,1
903,10.3,1.47,180.60000000000002,10.404369274492328,1
904,10.4,1.23,180.8,10.472482991153532,1
905,10.24,1.26,181.0,10.317228309967751,1
906,10.15,1.05,181.20000000000002,10.204165815979277,1
907,10.02,1.13,181.4,10.083516251784394,1
908,9.8,1.08,181.60000000000002,9.85933060608072,1
909,9.75,1.08,181.8,9.809633020658826,1
910,9.68,1.13,182.0,9.745732399363323,1
911,9.59,1.18,182.20000000000002,9.662323737072775,1
912,9.59,1.36,182.4,9.685953747566627,1
913,9.52,1.57,182.60000000000002,9.64859057064813,1
914,9.36,1.65,182.8,9.504320070368,1
915,9.36,1.84,183.0,9.539140422490906,1
916,9.08,2.13,183.20000000000002,9.32648379615812,1
917,9.04,2.32,183.4,9.332952373177525,1
918,9.19,2.6,183.60000000000002,9.550712015342102,1
919,9.27,2.7,183.8,9.655200671140916,1
920,9.24,3.1,184.0,9.746158217472153,1
921,9.41,3.32,184.20000000000002,9.97850189156669,1
922,9.48,3.6,184.4,10.140532530395038,1
923,9.23,3.95,184.60000000000002,10.039691230311817,1
924,9.17,4.27,184.8,10.115423866551515,1
925,9.2,4.62,185.0,10.294872510138239,1
926,9.2,5.1,185.20000000000002,10.519030373565807,1
927,9.32,5.41,185.4,10.776386221735002,1
928,9.06,5.82,185.60000000000002,10.76828677181287,1
929,8.99,6.27,185.8,10.960520060654057,1
930,8.82,6.72,186.0,11.088318177253031,1
931,8.64,7.01,186.20000000000002,11.126081969858033,1
932,8.47,7.45,186.4,11.280221629028395,1
933,8.32,7.93,186.60000000000002,11.493793977621142,1
934,8.17,8.24,186.8,11.603727849273268,1
935,7.94,8.59,187.0,11.69750828168119,1
936,7.65,8.71,187.20000000000002,11.592523452639638,1
937,7.38,9.1,187.4,11.716415834204588,1
938,7.06,9.34,187.60000000000002,11.708082678218496,1
939,6.86,9.62,187.8,11.815413661823271,1
940,6.57,9.65,188.0,11.674219459989605,1
941,6.2,9.63,188.20000000000002,11.453248447492966,1
942,5.71,9.63,188.4,11.195579484778804,1
943,6.01,10.29,188.60000000000002,11.91655151459515,1
944,5.71,10.43,188.8,11.890710660006828,1
945,5.21,10.45,189.0,11.676754686127477,1
946,5.21,10.45,189.20000000000002,11.676754686127477,1
947,5.0,10.48,189.4,11.611649322985947,1
948,4.73,10.37,189.60000000000002,11.397798032953558,1
949,4.71,10.47,189.8,11.480635870891472,1
950,4.54,10.45,190.0,11.39359908018533,1
951,4.4,10.55,190.20000000000002,11.430769877834127,1
952,4.35,10.32,190.4,11.199325872569295,1
953,4.27,10.48,190.60000000000002,11.316505644411617,1
954,4.26,10.3,190.8,11.146192174908883,1
955,4.39,10.41,191.0,11.297796245286069,1
956,4.46,10.25,191.20000000000002,11.178286988622183,1
957,4.47,10.16,191.4,11.09984234122269,1
958,4.64,10.2,191.60000000000002,11.205784220660329,1
959,4.81,10.2,191.8,11.277238137061751,1
960,4.91,10.17,192.0,11.293228059328298,1
961,5.13,10.33,192.20000000000002,11.533681112290212,1
962,5.26,10.36,192.4,11.618829545182251,1
963,5.31,10.14,192.60000000000002,11.446208979395754,1
964,5.6,10.12,192.8,11.566088362104104,1
965,5.7,10.2,193.0,11.684605256490268,1
966,6.09,10.12,193.20000000000002,11.811117643982723,1
967,6.21,10.15,193.4,11.899016766102987,1
968,6.39,10.16,193.60000000000002,12.002403925880849,1
969,6.6,10.09,193.8,12.056869411252658,1
970,6.78,10.22,194.0,12.26445269875505,1
971,6.85,9.89,194.20000000000002,12.030569396333657,1
972,6.89,10.0,194.4,12.143809122347074,1
973,6.93,9.99,194.60000000000002,12.158330477495666,1
974,7.02,9.95,194.8,12.177146628007728,1
975,7.0,9.83,195.0,12.06767997586943,1
976,6.93,9.72,195.20000000000002,11.937474607302835,1
977,7.05,9.98,195.4,12.21895658393138,1
978,7.23,9.81,195.60000000000002,12.18642687583198,1
979,7.08,9.66,195.8,11.976727432817365,1
980,7.18,9.85,196.0,12.189130403765478,1
981,7.1,9.82,196.20000000000002,12.117854595595707,1
982,6.98,10.01,196.4,12.203298734358674,1
983,7.07,9.92,196.60000000000002,12.18159677546421,1
984,7.04,9.91,196.8,12.156056103852105,1
985,6.9,9.96,197.0,12.116583676928082,1
986,6.89,10.05,197.20000000000002,12.185015387762135,1
987,7.06,10.06,197.4,12.290126118148667,1
988,6.68,10.19,197.60000000000002,12.184354722347836,1
989,6.75,10.3,197.8,12.31472695596618,1
990,6.57,10.4,198.0,12.301418617379055,1
991,6.41,10.5,198.20000000000002,12.301955129165444,1
992,6.39,10.51,198.4,12.300089430569193,1
993,6.06,10.63,198.60000000000002,12.236032853829709,1
994,6.1,10.71,198.8,12.325343808592116,1
995,6.36,10.74,199.0,12.481874859170796,1
996,5.87,10.85,199.20000000000002,12.336101491151894,1
997,6.23,10.91,199.4,12.563478817588702,1
998,5.92,10.92,199.60000000000002,12.421465291985482,1
999,6.06,11.05,199.8,12.602622742905544,1
1000,5.82,11.08,200.0,12.515542337429888,1
1001,5.72,11.09,200.20000000000002,12.478241061944589,1
1002,5.72,11.29,200.4,12.656322530656366,1
1003,5.71,11.26,200.60000000000002,12.625042574185642,1
1004,5.65,11.23,200.8,12.571213147504897,1
1005,5.65,11.41,201.0,12.732266098381702,1
1006,5.68,11.48,201.20000000000002,12.808309802624231,1
1007,5.71,11.54,201.4,12.875391256191012,1
1008,5.84,11.5,201.60000000000002,12.897891300518856,1
1009,6.0,11.56,201.8,13.024346432738957,1
1010,6.15,11.43,202.0,12.979499219923703,1
1011,6.39,11.47,202.20000000000002,13.129851484308572,1
1012,6.55,11.5,202.4,13.234519258363713,1
1013,6.73,11.42,202.60000000000002,13.255538465109595,1
1014,6.84,11.44,202.8,13.328885924937612,1
1015,7.16,11.36,203.0,13.428149537445583,1
1016,7.38,11.19,203.20000000000002,13.404495514565253,1
1017,7.51,11.25,203.4,13.526366844056833,1
1018,7.7,11.11,203.60000000000002,13.517473876431202,1
1019,8.02,10.95,203.8,13.572873682459436,1
1020,8.15,10.8,204.0,13.530059127734809,1
1021,8.57,10.6,204.20000000000002,13.631027107301929,1
1022,8.58,10.54,204.4,13.590732136275808,1
1023,8.74,10.47,204.60000000000002,13.638493318545125,1
1024,8.94,10.41,204.8,13.721942282344726,1
1025,9.08,10.22,205.0,13.670947297096863,1
1026,9.17,10.03,205.20000000000002,13.59006254584577,1
1027,9.35,10.12,205.4,13.77813122306505,1
1028,9.24,9.98,205.60000000000002,13.600661748606205,1
1029,9.43,9.89,205.8,13.665174715311913,1
1030,9.63,9.89,206.0,13.803948710423407,1
1031,9.54,9.88,206.20000000000002,13.734118100555273,1
1032,9.58,9.71,206.4,13.640399554265263,1
1033,9.2,9.64,206.60000000000002,13.325524379925916,1
1034,9.2,9.67,206.8,13.347243161042657,1
1035,9.41,9.65,207.0,13.47852365802724,1
1036,9.39,9.56,207.20000000000002,13.400212684879298,1
1037,9.48,9.54,207.4,13.449237896624478,1
1038,9.3,9.54,207.60000000000002,13.322972641268915,1
1039,9.12,9.52,207.8,13.183504845070601,1
1040,9.42,9.34,208.0,13.265443829740487,1
1041,9.8,9.26,208.20000000000002,13.482863197407292,1
1042,9.82,9.11,208.4,13.394943075653588,1
1043,9.37,9.1,208.60000000000002,13.06165762834105,1
1044,9.49,9.0,208.8,13.078994609678528,1
1045,9.47,8.9,209.0,12.99580316871566,1
1046,9.56,8.76,209.20000000000002,12.966541558950867,1
1047,9.52,8.68,209.4,12.883043118766622,1
1048,9.93,8.66,209.60000000000002,13.175754247859969,1
1049,10.23,8.48,209.8,13.287712368952002,1
1050,10.44,8.36,210.0,13.374722427026288,1
1051,10.15,8.33,210.20000000000002,13.13055215899164,1
1052,10.28,8.12,210.4,13.100106869793084,1
1053,10.28,8.01,210.60000000000002,13.03221009652622,1
1054,10.78,8.04,210.8,13.448048185517479,1
1055,10.72,8.13,211.0,13.45419265507968,1
1056,10.78,7.76,211.20000000000002,13.282544936871096,1
1057,10.63,8.05,211.4,13.334144142013766,1
1058,10.85,8.25,211.60000000000002,13.630297135425918,1
1059,10.63,8.33,211.8,13.505028693046158,1
1060,10.23,8.49,212.0,13.294096434131957,1
1061,9.97,8.74,212.20000000000002,13.258525559050675,1
1062,9.93,8.92,212.4,13.348082259261066,1
1063,9.82,9.4,212.60000000000002,13.59383683880309,1
1064,9.51,9.61,212.8,13.520066567883458,1
1065,9.17,9.84,213.0,13.450446089256667,1
1066,9.06,10.09,213.20000000000002,13.560667387706257,1
1067,8.72,10.39,213.4,13.564309787084635,1
1068,8.5,10.6,213.60000000000002,13.58712625980932,1
1069,8.2,10.87,213.8,13.616053025748686,1
1070,8.05,11.06,214.0,13.67940422679292,1
1071,7.95,11.2,214.20000000000002,13.734718781249217,1
1072,7.72,11.43,214.4,13.79287134718511,1
1073,7.55,11.73,214.60000000000002,13.949745517392065,1
1074,7.48,11.74,214.8,13.920416660430822,1
1075,7.24,11.93,215.0,13.95501701897923,1
1076,7.09,11.98,215.20000000000002,13.920793799205562,1
1077,6.86,12.01,215.4,13.83111347650651,1
1078,6.3,12.18,215.60000000000002,13.712855282544187,1
1079,6.2,12.26,215.8,13.738544318813402,1
1080,6.32,12.41,216.0,13.926611217378046,1
1081,6.12,12.4,216.20000000000002,13.828029505319982,1
1082,6.04,12.57,216.4,13.945841674133549,1
1083,5.69,12.79,216.60000000000002,13.998578499261987,1
1084,5.47,12.62,216.8,13.754464729679594,1
1085,5.3,12.7,217.0,13.761540611428648,1
1086,5.49,12.71,217.20000000000002,13.845006319969668,1
1087,5.28,12.95,217.4,13.98502413297882,1
1088,5.37,12.93,217.60000000000002,14.000778549780723,1
1089,5.26,12.76,217.8,13.801637583997053,1
1090,5.39,12.84,218.0,13.92543356596124,1
1091,5.38,12.67,218.20000000000002,13.76493007610282,1
1092,5.19,12.93,218.4,13.932731246959442,1
1093,5.26,12.69,218.60000000000002,13.736946531161864,1
1094,5.61,12.57,218.8,13.765064474967055,1
1095,5.75,12.58,219.0,13.831807546376577,1
1096,5.79,12.66,219.20000000000002,13.921196069303816,1
1097,5.98,12.4,219.4,13.766640839362376,1
1098,6.04,12.41,219.60000000000002,13.801800607167168,1
1099,6.41,12.42,219.8,13.976569679288263,1
1100,6.38,12.31,220.0,13.865082040867987,1
1101,6.46,12.26,220.20000000000002,13.857820896519048,1
1102,6.57,12.28,220.4,13.927070761649773,1
1103,6.43,12.26,220.60000000000002,13.843861455533279,1
1104,7.57,12.36,220.8,14.493947012460064,1
1105,6.76,12.32,221.0,14.052757736472937,1
1106,6.95,12.24,221.20000000000002,14.07551420019887,1
1107,6.92,12.38,221.4,14.182764187562311,1
1108,6.68,12.33,221.60000000000002,14.02324142272392,1
1109,6.95,12.22,221.8,14.058125764126597,1
1110,6.67,12.34,222.0,14.02727699876209,1
1111,6.66,12.47,222.20000000000002,14.137061222191832,1
1112,6.45,12.42,222.4,13.994959807016238,1
1113,6.39,12.53,222.60000000000002,14.065311941083992,1
1114,6.31,12.62,222.8,14.109588938023672,1
1115,6.14,12.65,223.0,14.06136906563511,1
1116,5.99,12.69,223.20000000000002,14.032683278689076,1
1117,5.72,12.82,223.4,14.038190766619465,1
1118,5.7,12.94,223.60000000000002,14.139787834334713,1
1119,5.54,12.91,223.8,14.04847678575866,1
1120,5.38,13.09,224.0,14.152473282080415,1
1121,5.27,13.08,224.20000000000002,14.101748118584448,1
1122,5.03,13.09,224.4,14.023159415766477,1
1123,4.86,13.25,224.60000000000002,14.113188867155431,1
1124,4.71,13.21,224.8,14.024557034002893,1
1125,4.42,13.39,225.0,14.100656013108043,1
1126,4.25,13.59,225.20000000000002,14.23905193473217,1
1127,4.23,13.61,225.4,14.252192813739224,1
1128,3.99,13.53,225.60000000000002,14.106062526445854,1
1129,3.69,13.63,225.8,14.120658624865909,1
1130,3.55,13.61,226.0,14.06536881848464,1
1131,3.35,13.68,226.20000000000002,14.084207467940821,1
1132,3.1,13.68,226.4,14.026845689605343,1
1133,2.86,13.67,226.60000000000002,13.965976514372347,1
1134,2.68,13.82,226.8,14.07745715674532,1
1135,2.41,13.94,227.0,14.146791155594261,1
1136,2.38,13.8,227.20000000000002,14.003728075052015,1
1137,2.05,13.85,227.4,14.000892828673463,1
1138,1.89,13.95,227.60000000000002,14.0774500531879,1
1139,1.85,13.93,227.8,14.052309418739682,1
1140,1.61,13.96,228.0,14.052533579394144,1
1141,1.27,14.02,228.20000000000002,14.077403879977302,1
1142,0.95,13.92,228.4,13.952379725337181,1
1143,0.73,13.84,228.60000000000002,13.859238795835795,1
1144,0.35,13.93,228.8,13.934396291192524,1
1145,0.14,13.97,229.00000000000003,13.970701485609089,1
1146,-0.27,13.85,229.20000000000002,13.852631518956967,1
1147,-0.37,14.18,229.4,14.184826400065669,1
1148,-1.39,13.63,229.60000000000002,13.700693413108695,1
1149,-1.19,13.42,229.8,13.472657495832067,1
1150,-1.38,13.51,230.00000000000003,13.580298229420443,1
1151,-1.82,13.81,230.20000000000002,13.92941132998807,1
1152,-1.99,13.69,230.4,13.833878704108983,1
1153,-2.17,13.78,230.60000000000002,13.949813618826596,1
1154,-2.35,13.54,230.8,13.742419728708624,1
1155,-2.5,13.53,231.00000000000003,13.759029762305188,1
1156,-2.58,13.59,231.20000000000002,13.832732918696868,1
1157,-2.65,13.5,231.4,13.757634244302325,1
1158,-2.63,13.41,231.60000000000002,13.665467427058616,1
1159,-2.5,13.41,231.8,13.641044681401787,1
1160,-2.48,13.41,232.00000000000003,13.637393445963198,1
1161,-2.17,13.5,232.20000000000002,13.673291483764983,1
1162,-2.11,13.49,232.4,13.654017723732455,1
1163,-1.91,13.42,232.60000000000002,13.555238839651627,1
1164,-1.62,13.37,232.8,13.467787494610983,1
1165,-1.43,13.41,233.00000000000003,13.48602980865755,1
1166,-1.16,13.3,233.20000000000002,13.350490627688558,1
1167,-0.97,13.48,233.4,13.514854790192901,1
1168,-0.73,13.33,233.60000000000002,13.349973782745792,1
1169,-0.34,13.3,233.8,13.304345154873277,1
1170,-0.35,13.55,234.00000000000003,13.554519541466604,1
1171,-0.23,13.4,234.20000000000002,13.401973735237657,1
1172,-0.05,13.59,234.4,13.59009197908535,1
1173,0.1,13.53,234.60000000000002,13.530369544103367,1
1174,0.25,13.42,234.8,13.422328412015554,1
1175,0.24,13.5,235.00000000000003,13.502133164800295,1
1176,0.43,13.41,235.20000000000002,13.416892337646598,1
1177,0.31,13.56,235.4,13.563543047448922,1
1178,0.31,13.37,235.60000000000002,13.373593383978742,1
1179,0.26,13.48,235.8,13.482507185238212,1
1180,0.16,13.35,236.00000000000003,13.350958767069876,1
1181,0.04,13.41,236.20000000000002,13.410059656839712,1
1182,-0.18,13.4,236.4,13.401208900692504,1
1183,-0.29,13.44,236.60000000000002,13.443128356152819,1
1184,-0.62,13.34,236.8,13.35440002396214,1
1185,-0.79,13.37,237.00000000000003,13.39331923012365,1
1186,-1.03,13.39,237.20000000000002,13.429556954717457,1
1187,-1.23,13.3,237.4,13.356754845395644,1
1188,-1.29,13.34,237.60000000000002,13.402227426812306,1
1189,-1.42,13.18,237.8,13.256273986305503,1
1190,-1.54,13.12,238.00000000000003,13.210071915019993,1
1191,-1.55,12.95,238.20000000000002,13.042430755039492,1
1192,-1.54,12.83,238.4,12.922093483642657,1
1193,-1.5,12.78,238.60000000000002,12.86772707202014,1
1194,-1.48,12.64,238.8,12.726350615946428,1
1195,-1.26,12.42,239.00000000000003,12.483749436767786,1
1196,-1.19,12.45,239.20000000000002,12.506742181719424,1
1197,-0.97,12.29,239.4,12.328219660599823,1
1198,-0.67,12.05,239.60000000000002,12.068612182019937,1
1199,-0.49,11.94,239.8,11.950050209099542,1
1200,-0.24,11.85,240.00000000000003,11.85243013056816,1
1201,0.07,11.77,240.20000000000002,11.770208154489026,1
1202,0.24,11.64,240.4,11.642473963896164,1
1203,0.46,11.6,240.60000000000002,11.609117106825996,1
1204,0.7,11.54,240.8,11.561211009232553,1
1205,0.8,11.53,241.00000000000003,11.557720363462684,1
1206,0.87,11.55,241.20000000000002,11.582719887832909,1
1207,1.0,11.53,241.4,11.573283890063356,1
1208,1.09,11.49,241.60000000000002,11.54158567961959,1
1209,1.09,11.59,241.8,11.641142555608534,1
1210,0.86,11.69,242.00000000000003,11.721591188912877,1
1211,0.87,11.82,242.20000000000002,11.851974519041121,1
1212,0.72,11.94,242.4,11.961688843971825,1
1213,0.59,12.03,242.60000000000002,12.0444593070839,1
1214,0.34,12.15,242.8,12.154756270695025,1
1215,0.11,12.23,243.00000000000003,12.230494675196095,1
1216,-0.45,12.4,243.20000000000002,12.408162635942519,1
1217,-0.87,12.63,243.4,12.65992890975301,1
1218,-1.28,12.63,243.60000000000002,12.694695742710811,1
1219,-1.73,12.7,243.8,12.817289104955071,1
1220,-2.27,12.76,244.00000000000003,12.96034335964908,1
1221,-2.8,12.73,244.20000000000002,13.034297065818318,1
1222,-3.41,12.87,244.4,13.314090280601222,1
1223,-3.97,12.75,244.60000000000002,13.353778491498202,1
1224,-4.44,12.54,244.8,13.30282676727018,1
1225,-5.13,12.66,245.00000000000003,13.659886529543355,1
1226,-5.56,12.31,245.20000000000002,13.507394271287117,1
1227,-6.08,12.09,245.4,13.532719608415745,1
1228,-6.65,12.03,245.60000000000002,13.74566840862968,1
1229,-7.1,11.84,245.8,13.805636530055397,1
1230,-7.52,11.42,246.00000000000003,13.673580365068982,1
1231,-7.86,11.21,246.20000000000002,13.691007997952527,1
1232,-8.25,10.97,246.4,13.726011802413694,1
1233,-8.58,10.59,246.60000000000002,13.62954511346582,1
1234,-8.78,10.3,246.8,13.534341505961788,1
1235,-9.07,9.99,247.00000000000003,13.493146408454923,1
1236,-9.38,9.59,247.20000000000002,13.41463752771576,1
1237,-9.44,9.24,247.4,13.209511724511243,1
1238,-9.69,8.84,247.60000000000002,13.116466749853025,1
1239,-9.96,8.51,247.8,13.100446557274298,1
1240,-10.21,8.15,248.00000000000003,13.063942743291552,1
1241,-10.38,7.73,248.20000000000002,12.942074795024174,1
1242,-10.6,7.27,248.4,12.853517028424555,1
1243,-10.82,6.98,248.60000000000002,12.876055296557249,1
1244,-10.9,6.4,248.8,12.640015822774908,1
1245,-10.96,5.91,249.00000000000003,12.451895438044765,1
1246,-11.13,5.36,249.20000000000002,12.353400341606356,1
1247,-11.4,4.89,249.4,12.404519337725263,1
1248,-11.65,4.41,249.60000000000002,12.456749174644242,1
1249,-11.89,4.02,249.8,12.551195162214634,1
1250,-12.15,3.45,250.00000000000003,12.630320661012531,1
1251,-12.31,3.06,250.20000000000002,12.684624551006625,1
1252,-12.48,2.6,250.4,12.747956699016514,1
1253,-12.73,2.27,250.60000000000002,12.930808172732283,1
1254,-12.99,1.9,250.8,13.128217700815295,1
1255,-13.09,1.55,251.00000000000003,13.181449085741674,1
1256,-13.26,1.49,251.20000000000002,13.343451577459259,1
1257,-13.41,1.04,251.4,13.450267655329391,1
1258,-13.53,0.94,251.60000000000002,13.562614054819962,1
1259,-13.62,1.03,251.8,13.658890877373608,1
1260,-13.74,1.02,252.00000000000003,13.777808243693915,1
1261,-13.77,1.04,252.20000000000002,13.809217935857193,1
1262,-13.91,1.14,252.4,13.956636414265438,1
1263,-13.93,1.25,252.60000000000002,13.985971542942591,1
1264,-13.94,1.36,252.8,14.006184348351267,1
1265,-14.06,1.6,253.00000000000003,14.150745563397004,1
1266,-14.02,1.79,253.20000000000002,14.13380698891845,1
1267,-14.04,1.89,253.4,14.166640392132496,1
1268,-14.06,2.05,253.60000000000002,14.2086628505289,1
1269,-13.98,2.08,253.8,14.133888353881957,1
1270,-13.99,2.07,254.00000000000003,14.142312399321407,1
1271,-13.97,2.02,254.20000000000002,14.115286040318136,1
1272,-13.93,1.9,254.4,14.058979337064267,1
1273,-13.92,1.74,254.60000000000002,14.028328482039477,1
1274,-13.91,1.46,254.8,13.986411262364625,1
1275,-13.83,1.3,255.00000000000003,13.890964689322336,1
1276,-13.88,0.94,255.20000000000002,13.911793557985254,1
1277,-13.95,0.62,255.4,13.963770980648457,1
1278,-13.91,0.24,255.60000000000002,13.912070298844814,1
1279,-13.93,-0.01,255.8,13.930003589374985,1
1280,-13.8,-0.38,256.0,13.805230892672531,1
1281,-13.84,-0.72,256.2,13.858715669209756,1
1282,-13.7,-0.86,256.40000000000003,13.72696616153766,1
1283,-13.85,-1.32,256.6,13.91276032999922,1
1284,-13.79,-1.24,256.8,13.845638302368005,1
1285,-13.85,-1.42,257.0,13.922603923117256,1
1286,-13.78,-1.46,257.2,13.85712812959453,1
1287,-13.75,-1.46,257.40000000000003,13.827295469469075,1
1288,-13.73,-1.4,257.6,13.801191977506871,1
1289,-13.74,-1.26,257.8,13.797651974158502,1
1290,-13.71,-1.15,258.0,13.758146677514382,1
1291,-13.69,-0.99,258.2,13.725749524160785,1
1292,-13.67,-0.82,258.40000000000003,13.694571917369306,1
1293,-13.69,-0.63,258.6,13.704488315876663,1
1294,-13.74,-0.47,258.8,13.748036223402963,1
1295,-13.65,-0.43,259.0,13.656771214309773,1
1296,-13.66,-0.23,259.2,13.661936173178383,1
1297,-13.66,-0.21,259.40000000000003,13.66161410668593,1
1298,-13.65,-0.04,259.6,13.650058607932788,1
1299,-13.66,-0.1,259.8,13.660366027306882,1
1300,-13.63,-0.14,260.0,13.630718983237825,1
1301,-13.68,-0.13,260.2,13.680617676113895,1
1302,-13.68,-0.19,260.40000000000003,13.681319380819964,1
1303,-13.67,-0.35,260.6,13.674479880419584,1
1304,-13.82,-0.51,260.8,13.829407073334705,1
1305,-13.82,-0.57,261.0,13.831749708550976,1
1306,-13.8,-0.71,261.2,13.81825242206843,1
1307,-13.94,-0.87,261.40000000000003,13.967122108723759,1
1308,-13.97,-0.92,261.6,14.000260711858191,1
1309,-13.94,-1.0,261.8,13.975821979404289,1
1310,-13.9,-1.1,262.0,13.943457247038843,1
1311,-14.03,-1.07,262.2,14.070742695394582,1
1312,-14.02,-1.11,262.40000000000003,14.063872155277863,1
1313,-14.02,-1.04,262.6,14.05852054805199,1
1314,-14.05,-0.97,262.8,14.083444181023335,1
1315,-14.04,-0.87,263.0,14.066929302445505,1
1316,-14.14,-0.72,263.2,14.158319109272824,1
1317,-14.19,-0.65,263.40000000000003,14.20487944334622,1
1318,-14.13,-0.48,263.6,14.138150515537738,1
1319,-14.37,-0.5,263.8,14.378696046582249,1
1320,-13.87,-0.06,264.0,13.870129775888904,1
1321,-14.13,-0.09,264.2,14.130286621296825,1
1322,-14.02,-0.01,264.40000000000003,14.020003566333354,1
1323,-14.01,0.05,264.6,14.010089221700197,1
1324,-13.96,0.15,264.8,13.96080585066636,1
1325,-14.01,0.17,265.0,14.011031368175578,1
1326,-13.9,0.18,265.2,13.901165418769752,1
1327,-13.95,0.15,265.40000000000003,13.950806428303705,1
1328,-13.99,0.09,265.6,13.990289489499494,1
1329,-13.77,-0.08,265.8,13.770232387291074,1
1330,-13.81,-0.16,266.0,13.81092683348949,1
1331,-13.83,-0.24,266.2,13.832082272745488,1
1332,-13.73,-0.29,266.40000000000003,13.73306229506005,1
1333,-13.68,-0.42,266.6,13.686445849817986,1
1334,-13.59,-0.54,266.8,13.600724245421638,1
1335,-13.69,-0.6,267.0,13.703141975474093,1
1336,-13.61,-0.67,267.2,13.626481570823776,1
1337,-13.66,-0.65,267.40000000000003,13.675456116707771,1
1338,-13.66,-0.75,267.6,13.680573818374725,1
1339,-13.68,-0.75,267.8,13.700543784828396,1
1340,-13.55,-0.68,268.0,13.567052001079675,1
1341,-13.72,-0.6,268.2,13.733113266845214,1
1342,-13.61,-0.56,268.40000000000003,13.621516068338355,1
1343,-13.54,-0.54,268.6,13.550763816110145,1
1344,-13.27,-0.4,268.8,13.276027267221169,1
1345,-13.24,-0.34,269.0,13.244364839432656,1
1346,-13.27,-0.3,269.2,13.273390674578971,1
1347,-13.23,-0.28,269.40000000000003,13.232962631247773,1
1348,-13.27,-0.11,269.6,13.270455907767449,1
1349,-13.38,-0.14,269.8,13.380732416426241,1
1350,-13.45,-0.18,270.0,13.451204407041027,1
1351,-13.51,-0.17,270.2,13.511069535754746,1
1352,-13.65,-0.13,270.40000000000003,13.650619033582323,1
1353,-13.66,-0.19,270.6,13.66132131237678,1
1354,-13.72,-0.29,270.8,13.723064526555286,1
1355,-13.76,-0.39,271.0,13.765525780005643,1
1356,-13.75,-0.51,271.2,13.759454931064674,1
1357,-13.79,-0.63,271.40000000000003,13.804383361816637,1
1358,-13.9,-0.74,271.6,13.919683904457026,1
1359,-13.98,-0.95,271.8,14.01224107700121,1
1360,-14.01,-1.04,272.0,14.048547967672674,1
1361,-14.09,-1.16,272.2,14.137669539213313,1
1362,-14.12,-1.33,272.40000000000003,14.182499779658027,1
1363,-14.06,-1.39,272.6,14.128542033769797,1
1364,-14.13,-1.43,272.8,14.202175889630436,1
1365,-14.11,-1.51,273.0,14.190567289576551,1
1366,-14.08,-1.58,273.2,14.168373230544146,1
1367,-14.04,-1.52,273.40000000000003,14.122039512761603,1
1368,-13.98,-1.5,273.6,14.060241818688612,1
1369,-13.95,-1.48,273.8,14.028289275603067,1
1370,-14.01,-1.38,274.0,14.077801674977525,1
1371,-13.88,-1.33,274.20000000000005,13.943575581607467,1
1372,-13.87,-1.14,274.40000000000003,13.916770458694788,1
1373,-13.83,-0.96,274.6,13.86327883294569,1
1374,-13.92,-0.78,274.8,13.941836320944239,1
1375,-13.79,-0.63,275.0,13.804383361816637,1
1376,-13.69,-0.41,275.20000000000005,13.696138141826696,1
1377,-13.68,-0.33,275.40000000000003,13.683979684287754,1
1378,-13.58,0.02,275.6,13.580014727532516,1
1379,-13.56,0.03,275.8,13.5600331858001,1
1380,-13.61,0.18,276.0,13.611190249203043,1
1381,-13.48,0.2,276.20000000000005,13.481483597883432,1
1382,-13.45,0.3,276.40000000000003,13.453345308881355,1
1383,-13.44,0.29,276.6,13.443128356152819,1
1384,-13.49,0.22,276.8,13.491793802159888,1
1385,-13.3,0.24,277.0,13.302165237283742,1
1386,-13.45,0.16,277.20000000000005,13.450951639196386,1
1387,-13.44,0.11,277.40000000000003,13.44045014127131,1
1388,-13.33,-0.05,277.6,13.330093773113525,1
1389,-13.5,-0.15,277.8,13.500833307614757,1
1390,-13.52,-0.22,278.0,13.521789822357096,1
1391,-13.54,-0.33,278.20000000000005,13.544020821011756,1
1392,-13.48,-0.41,278.40000000000003,13.486233721836502,1
1393,-13.53,-0.48,278.6,13.538511735046802,1
1394,-13.63,-0.48,278.8,13.638449325344872,1
1395,-13.72,-0.37,279.0,13.724988160286333,1
1396,-13.58,-0.53,279.20000000000005,13.59033847996436,1
1397,-13.6,-0.43,279.40000000000003,13.60679609606905,1
1398,-13.72,-0.48,279.6,13.728393933741849,1
1399,-13.74,-0.37,279.8,13.744980902132967,1
1400,-13.75,-0.31,280.0,13.753494101500172,1
1401,-13.73,-0.19,280.20000000000005,13.731314576543646,1
1402,-13.74,-0.15,280.40000000000003,13.740818752898242,1
1403,-13.8,-0.03,280.6,13.800032608657126,1
1404,-13.81,0.2,280.8,13.81144814999499,1
1405,-13.84,0.31,281.0,13.843471385458201,1
1406,-13.77,0.44,281.20000000000005,13.77702798138989,1
1407,-13.78,0.46,281.40000000000003,13.787675656179326,1
1408,-13.74,0.54,281.6,13.750607259317677,1
1409,-13.74,0.58,281.8,13.75223618179967,1
1410,-13.79,0.61,282.0,13.803485067185026,1
1411,-13.83,0.59,282.20000000000005,13.842579239433668,1
1412,-13.71,0.62,282.40000000000003,13.72401180413366,1
1413,-13.65,0.49,282.6,13.658792040294047,1
1414,-13.7,0.49,282.8,13.708759973097493,1
1415,-13.61,0.42,283.0,13.61647898687469,1
1416,-13.59,0.36,283.20000000000005,13.594767375722176,1
1417,-13.65,0.27,283.40000000000003,13.652670068525058,1
1418,-13.63,0.2,283.6,13.631467272454568,1
1419,-13.68,0.14,283.8,13.680716355512967,1
1420,-13.74,0.1,284.0,13.74036389620013,1
1421,-13.56,0.06,284.20000000000005,13.560132742713105,1
1422,-13.56,0.04,284.40000000000003,13.560058996921805,1
1423,-13.66,0.06,284.6,13.660131770960337,1
1424,-13.65,0.01,284.8,13.650003663003172,1
1425,-13.67,-0.01,285.0,13.670003657643987,1
1426,-13.69,0.04,285.20000000000005,13.690058436690473,1
1427,-13.65,0.19,285.40000000000003,13.65132228027747,1
1428,-13.58,0.21,285.6,13.581623614281174,1
1429,-13.67,0.38,285.8,13.675280618692986,1
1430,-13.6,0.36,286.0,13.604763871526767,1
1431,-13.63,0.46,286.20000000000005,13.637760080013141,1
1432,-13.52,0.57,286.40000000000003,13.532010198045226,1
1433,-13.51,0.63,286.6,13.524681142267273,1
1434,-13.58,0.75,286.8,13.600694835191327,1
1435,-13.48,0.78,287.0,13.502547907709863,1
1436,-13.47,0.75,287.20000000000005,13.490863575027362,1
1437,-13.51,0.71,287.40000000000003,13.528643686637622,1
1438,-13.5,0.7,287.6,13.518135966175219,1
1439,-13.43,0.72,287.8,13.449286226413653,1
1440,-13.55,0.64,288.0,13.565105970835614,1
1441,-13.44,0.59,288.20000000000005,13.452943915738294,1
1442,-13.44,0.4,288.40000000000003,13.445951063424259,1
1443,-13.47,0.39,288.6,13.475644697008008,1
1444,-13.48,0.31,288.8,13.483564068895138,1
1445,-13.45,0.2,289.0,13.45148690665831,1
1446,-13.5,0.11,289.20000000000005,13.500448140709997,1
1447,-13.52,-0.02,289.40000000000003,13.520014792891315,1
1448,-13.61,-0.06,289.6,13.610132255051749,1
1449,-13.52,-0.16,289.8,13.520946712416256,1
1450,-13.58,-0.13,290.0,13.580622224331256,1
1451,-13.53,-0.13,290.20000000000005,13.530624523650044,1
1452,-13.53,-0.15,290.40000000000003,13.530831460039696,1
1453,-13.59,-0.18,290.6,13.591192000703986,1
1454,-13.6,-0.14,290.8,13.600720569146327,1
1455,-13.6,-0.05,291.0,13.600091911454127,1
1456,-13.51,0.03,291.20000000000005,13.51003330861919,1
1457,-13.62,0.13,291.40000000000003,13.620620397030377,1
1458,-13.63,0.15,291.6,13.630825360190043,1
1459,-13.6,0.28,291.8,13.602882047566242,1
1460,-13.55,0.32,292.0,13.553778071076714,1
1461,-13.49,0.43,292.20000000000005,13.4968514846982,1
1462,-13.55,0.41,292.40000000000003,13.556201532877859,1
1463,-13.54,0.48,292.6,13.548505452632035,1
1464,-13.53,0.47,292.8,13.53816087952865,1
1465,-13.51,0.52,293.0,13.520003698224345,1
1466,-13.53,0.5,293.20000000000005,13.539235576649073,1
1467,-13.61,0.52,293.40000000000003,13.619930249454288,1
1468,-13.59,0.44,293.6,13.597121018803943,1
1469,-13.73,0.43,293.8,13.7367317801579,1
1470,-13.72,0.31,294.0,13.723501739716434,1
1471,-13.69,0.27,294.20000000000005,13.692662268529082,1
1472,-13.69,0.12,294.40000000000003,13.690525921234729,1
1473,-13.67,0.05,294.6,13.670091440806093,1
1474,-13.68,0.07,294.8,13.680179092394953,1
1475,-13.7,-0.02,295.0,13.700014598532368,1
1476,-13.71,-0.03,295.20000000000005,13.710032822717823,1
1477,-13.77,0.0,295.40000000000003,13.77,1
1478,-13.73,0.02,295.6,13.730014566634662,1
1479,-13.72,0.0,295.8,13.72,1
1480,-13.72,0.07,296.0,13.720178570266496,1
1481,-13.68,0.12,296.20000000000005,13.680526305665289,1
1482,-13.63,0.2,296.40000000000003,13.631467272454568,1
1483,-13.66,0.33,296.6,13.663985509359998,1
1484,-13.69,0.43,296.8,13.696751439666269,1
1485,-13.62,0.48,297.0,13.62845552511362,1
1486,-13.66,0.57,297.20000000000005,13.67188721428026,1
1487,-13.58,0.62,297.40000000000003,13.594145798835616,1
1488,-13.65,0.74,297.6,13.67004389166326,1
1489,-13.61,0.76,297.8,13.631203175068588,1
1490,-13.58,0.83,298.0,13.605340863058155,1
1491,-13.5,0.79,298.20000000000005,13.52309505993358,1
1492,-13.57,0.86,298.40000000000003,13.597223981386788,1
1493,-13.5,0.82,298.6,13.524880775814625,1
1494,-13.54,0.71,298.8,13.558602435354462,1
1495,-13.45,0.66,299.0,13.466183572192975,1
1496,-13.48,0.62,299.20000000000005,13.494250627582105,1
1497,-13.53,0.51,299.40000000000003,13.53960856155007,1
1498,-13.42,0.45,299.6,13.42754258976675,1
1499,-13.49,0.49,299.8,13.498896251175502,1
1500,-13.42,0.37,300.0,13.425099627190853,1
1501,-13.49,0.34,300.20000000000005,13.49428397507626,1
1502,-13.47,0.25,300.40000000000003,13.472319770551767,1
1503,-13.5,0.26,300.6,13.50250347157889,1
1504,-13.47,0.25,300.8,13.472319770551767,1
1505,-13.41,0.31,301.0,13.413582668325416,1
1506,-13.49,0.3,301.20000000000005,13.493335391962953,1
1507,-13.5,0.31,301.40000000000003,13.503558790185645,1
1508,-13.48,0.38,301.6,13.485355019427557,1
1509,-13.42,0.42,301.8,13.426570671619764,1
1510,-13.43,0.53,302.0,13.440453861384295,1
1511,-13.43,0.67,302.20000000000005,13.446702197936862,1
1512,-13.48,0.74,302.40000000000003,13.500296293044832,1
1513,-13.44,0.75,302.6,13.460910073245419,1
1514,-13.43,0.82,302.8,13.45501021924547,1
1515,-13.39,0.81,303.0,13.41447725407144,1
1516,-13.37,0.82,303.20000000000005,13.3951222465493,1
1517,-13.4,0.82,303.40000000000003,13.425066107844684,1
1518,-13.44,0.85,303.6,13.46685189641588,1
1519,-13.41,0.84,303.8,13.43628296814264,1
1520,-13.5,0.75,304.0,13.52081728298996,1
1521,-13.47,0.8,304.20000000000005,13.49373558359582,1
1522,-13.45,0.62,304.40000000000003,13.464282379688862,1
1523,-13.49,0.58,304.6,13.502462738330367,1
1524,-13.5,0.51,304.8,13.50962989870559,1
1525,-13.57,0.34,305.0,13.574258727459117,1
1526,-13.53,0.25,305.20000000000005,13.53230948508051,1
1527,-13.51,0.12,305.40000000000003,13.510532928052838,1
1528,-13.54,0.0,305.6,13.54,1
1529,-13.62,-0.04,305.8,13.620058737024594,1
1530,-13.63,-0.16,306.0,13.630939072565765,1
1531,-13.58,-0.23,306.20000000000005,13.58194757757517,1
1532,-13.62,-0.17,306.40000000000003,13.6210608984763,1
1533,-13.59,-0.26,306.6,13.59248689534038,1
1534,-13.55,-0.32,306.8,13.553778071076714,1
1535,-13.68,-0.33,307.0,13.683979684287754,1
1536,-13.6,-0.25,307.20000000000005,13.602297600038016,1
1537,-13.63,-0.22,307.40000000000003,13.631775379604814,1
1538,-13.53,-0.11,307.6,13.530447147082759,1
1539,-13.58,-0.02,307.8,13.580014727532516,1
1540,-13.6,0.01,308.0,13.600003676470092,1
1541,-13.49,0.13,308.20000000000005,13.490626375376348,1
1542,-13.49,0.24,308.40000000000003,13.492134745843595,1
1543,-13.47,0.31,308.6,13.47356671412585,1
1544,-13.47,0.29,308.8,13.473121390383152,1
1545,-13.44,0.46,309.0,13.447869719773463,1
1546,-13.43,0.47,309.20000000000005,13.438221608531391,1
1547,-13.4,0.57,309.40000000000003,13.41211765531454,1
1548,-13.33,0.56,309.6,13.341757755258488,1
1549,-13.46,0.73,309.8,13.479781155493587,1
1550,-13.32,0.71,310.0,13.338909250759599,1
1551,-13.39,0.67,310.20000000000005,13.406752030227157,1
1552,-13.39,0.7,310.40000000000003,13.408284752346216,1
1553,-13.34,0.74,310.6,13.360508972340837,1
1554,-13.35,0.74,310.8,13.37049363337046,1
1555,-13.31,0.74,311.0,13.330555127225573,1
1556,-13.31,0.74,311.20000000000005,13.330555127225573,1
1557,-13.29,0.66,311.40000000000003,13.306378169885296,1
1558,-13.28,0.67,311.6,13.296890613974382,1
1559,-13.28,0.66,311.8,13.29639048764739,1
1560,-13.23,0.61,312.0,13.244055270195757,1
1561,-13.26,0.59,312.20000000000005,13.273119452487421,1
1562,-13.27,0.64,312.40000000000003,13.285424343994436,1
1563,-13.31,0.6,312.6,13.32351680300663,1
1564,-13.35,0.51,312.8,13.359738021383503,1
1565,-13.33,0.52,313.0,13.340138679938825,1
1566,-13.31,0.55,313.20000000000005,13.321358789552963,1
1567,-13.25,0.53,313.40000000000003,13.260595763388611,1
1568,-13.32,0.62,313.6,13.334421622252687,1
1569,-13.28,0.76,313.8,13.301729210895852,1
1570,-13.32,0.89,314.0,13.349700371169385,1
1571,-13.22,1.1,314.20000000000005,13.265685055812234,1
1572,-13.12,1.36,314.40000000000003,13.19029946589538,1
1573,-13.08,1.64,314.6,13.182412525786015,1
1574,-12.96,2.0,314.8,13.113412980608825,1
1575,-12.86,2.42,315.0,13.085717404865504,1
1576,-12.79,2.88,315.20000000000005,13.110244086209836,1
1577,-12.68,3.38,315.40000000000003,13.122758856277136,1
1578,-12.46,3.89,315.6,13.053110740356109,1
1579,-12.29,4.48,315.8,13.08107411491885,1
1580,-12.0,5.08,316.0,13.030978474389403,1
1581,-11.76,5.71,316.20000000000005,13.072937695866221,1
1582,-11.52,6.41,316.40000000000003,13.183265907960743,1
1583,-11.19,6.95,316.6,13.17264589974239,1
1584,-10.74,7.53,316.8,13.116725963440723,1
1585,-10.55,8.09,317.0,13.294758365611616,1
1586,-10.26,8.57,317.20000000000005,13.368339463074687,1
1587,-9.99,9.11,317.40000000000003,13.520066567883458,1
1588,-9.55,9.35,317.6,13.36506640462366,1
1589,-9.35,9.61,317.8,13.408005071598087,1
1590,-9.19,9.96,318.0,13.552036747293744,1
1591,-8.98,10.08,318.20000000000005,13.499881480961232,1
1592,-8.86,10.26,318.40000000000003,13.556076128437757,1
1593,-8.75,10.16,318.6,13.408508492744447,1
1594,-8.74,10.1,318.8,13.356556442436801,1
1595,-8.74,10.07,319.0,13.33388540523729,1
1596,-8.64,9.83,319.20000000000005,13.087341212026223,1
1597,-8.7,9.66,319.40000000000003,13.000215382831163,1
1598,-8.68,9.56,319.6,12.91262947660158,1
1599,-8.71,9.42,319.8,12.829672638068363,1
1600,-8.63,9.18,320.0,12.599575389670877,1
1601,-8.62,9.11,320.20000000000005,12.541790143356728,1
1602,-8.55,8.95,320.40000000000003,12.37760073681487,1
1603,-8.46,8.92,320.6,12.293819585466514,1
1604,-8.3,8.93,320.8,12.191591364543024,1
1605,-8.09,9.06,321.0,12.146262799725683,1
1606,-7.86,9.19,321.20000000000005,12.0927953757599,1
1607,-7.48,9.3,321.40000000000003,11.934839755941427,1
1608,-7.14,9.44,321.6,11.836097329778934,1
1609,-6.76,9.71,321.8,11.831386224783637,1
1610,-6.22,9.94,322.0,11.725698273450497,1
1611,-5.94,10.41,322.20000000000005,11.985478713843682,1
1612,-5.41,10.51,322.40000000000003,11.82066833981903,1
1613,-4.99,10.9,322.6,11.987914747778282,1
1614,-4.49,11.12,322.8,11.992268342561385,1
1615,-4.03,11.25,323.0,11.950037656844435,1
1616,-3.7,11.5,323.20000000000005,12.08056290079233,1
1617,-3.37,11.68,323.40000000000003,12.156450962349167,1
1618,-3.02,11.86,323.6,12.238463955905576,1
1619,-2.92,12.15,323.8,12.495955345630842,1
1620,-2.78,12.18,324.0,12.493230166774323,1
1621,-2.6,12.24,324.20000000000005,12.513097138598422,1
1622,-2.66,12.32,324.40000000000003,12.60388828893687,1
1623,-2.62,12.35,324.6,12.624852474385591,1
1624,-2.72,12.28,324.8,12.577630937501704,1
1625,-2.85,12.4,325.0,12.723305388145016,1
1626,-2.98,12.25,325.20000000000005,12.607255847328554,1
1627,-3.04,12.17,325.40000000000003,12.543942761349001,1
1628,-3.28,12.18,325.6,12.613912953560444,1
1629,-3.34,12.08,325.8,12.533235815223456,1
1630,-3.41,12.05,326.0,12.52320246582319,1
1631,-3.53,12.02,326.20000000000005,12.527621482148957,1
1632,-3.63,12.08,326.40000000000003,12.613615659278667,1
1633,-3.65,12.08,326.6,12.619385880461854,1
1634,-3.52,12.08,326.8,12.582400406917593,1
1635,-3.48,12.15,327.0,12.6385481761158,1
1636,-3.4,12.18,327.20000000000005,12.645647472549596,1
1637,-3.22,12.29,327.40000000000003,12.704821919255696,1
1638,-3.0,12.24,327.6,12.602285507002291,1
1639,-2.82,12.36,327.8,12.677618072808473,1
1640,-2.51,12.36,328.0,12.61228369487461,1
1641,-2.38,12.56,328.20000000000005,12.783504996674425,1
1642,-2.01,12.44,328.40000000000003,12.601337230627548,1
1643,-1.79,12.42,328.6,12.548326581660202,1
1644,-1.67,12.48,328.8,12.591239017666213,1
1645,-1.37,12.45,329.0,12.525150697696215,1
1646,-1.19,12.4,329.20000000000005,12.456969936545566,1
1647,-1.08,12.46,329.40000000000003,12.506718194634436,1
1648,-0.9,12.45,329.6,12.482487732819928,1
1649,-0.95,12.42,329.8,12.456279540858096,1
1650,-0.9,12.37,330.0,12.402697287283923,1
1651,-0.97,12.29,330.20000000000005,12.328219660599823,1
1652,-1.06,12.29,330.40000000000003,12.335627264148346,1
1653,-1.11,12.25,330.6,12.30018699044856,1
1654,-1.16,12.12,330.8,12.175385004179539,1
1655,-1.32,12.05,331.0,12.122083154309742,1
1656,-1.41,12.05,331.20000000000005,12.132213318269672,1
1657,-1.63,12.01,331.40000000000003,12.120107260251453,1
1658,-1.66,12.04,331.6,12.15389649454034,1
1659,-1.76,12.06,331.8,12.187747946195802,1
1660,-1.83,12.1,332.0,12.237601889259185,1
1661,-1.88,11.95,332.20000000000005,12.096978961707753,1
1662,-1.88,11.97,332.40000000000003,12.116736359267705,1
1663,-1.79,11.98,332.6,12.112988896222106,1
1664,-1.72,11.97,332.8,12.092944223802572,1
1665,-1.61,11.97,333.0,12.077789532857409,1
1666,-1.51,12.1,333.20000000000005,12.193855009798993,1
1667,-1.35,12.08,333.40000000000003,12.15520053310516,1
1668,-1.2,12.21,333.6,12.268826349736964,1
1669,-0.94,12.25,333.8,12.286012371799078,1
1670,-0.81,12.33,334.0,12.356577195971383,1
1671,-0.7,12.63,334.20000000000005,12.649383384181224,1
1672,-0.4,12.44,334.40000000000003,12.446429206804655,1
1673,-0.05,12.37,334.6,12.370101050516928,1
1674,0.03,12.37,334.8,12.370036378281188,1
1675,0.2,12.47,335.0,12.471603746110603,1
1676,0.22,12.66,335.20000000000005,12.66191138809619,1
1677,0.3,12.56,335.40000000000003,12.563582291687352,1
1678,0.34,12.61,335.6,12.614582830993658,1
1679,0.48,12.64,335.8,12.649110640673518,1
1680,0.45,12.52,336.0,12.528084450545501,1
1681,0.42,12.46,336.20000000000005,12.467076642100185,1
1682,0.46,12.32,336.40000000000003,12.328584671404906,1
1683,0.21,12.61,336.6,12.611748490990452,1
1684,0.14,12.54,336.8,12.540781474852354,1
1685,-0.02,12.52,337.0,12.520015974430704,1
1686,-0.17,12.47,337.20000000000005,12.471158727239423,1
1687,-0.27,12.4,337.40000000000003,12.402939167794061,1
1688,-0.47,12.38,337.6,12.388918435440603,1
1689,-0.78,12.41,337.8,12.434488328837661,1
1690,-0.98,12.21,338.0,12.249265284089493,1
1691,-1.34,12.19,338.20000000000005,12.263429373548004,1
1692,-1.75,12.26,338.40000000000003,12.3842682464488,1
1693,-2.18,12.14,338.6,12.334180151108544,1
1694,-2.65,12.11,338.8,12.396555973333884,1
1695,-3.1,11.81,339.0,12.210081899807225,1
1696,-3.61,11.71,339.20000000000005,12.253823892973164,1
1697,-4.17,11.53,339.40000000000003,12.260905349932361,1
1698,-4.77,11.34,339.6,12.302377818942158,1
1699,-5.39,11.1,339.8,12.339452986255102,1
1700,-5.93,10.81,340.0,12.329679638984949,1
1701,-6.64,10.44,340.20000000000005,12.372679580430423,1
1702,-7.26,10.15,340.40000000000003,12.47918667221546,1
1703,-7.86,9.63,340.6,12.430466604275159,1
1704,-8.52,9.37,340.8,12.664410764026883,1
1705,-9.17,8.86,341.0,12.751019567077764,1
1706,-9.81,8.56,341.20000000000005,13.019589087217769,1
1707,-10.38,8.07,341.40000000000003,13.147977030707043,1
1708,-10.86,7.37,341.6,13.124652376348868,1
1709,-11.43,6.91,341.8,13.35638424125332,1
1710,-11.91,6.3,342.0,13.473607534732485,1
1711,-12.34,5.6,342.20000000000005,13.55122134717015,1
1712,-12.67,5.17,342.40000000000003,13.684217186233198,1
1713,-12.98,4.53,342.6,13.747774365329104,1
1714,-13.4,4.0,342.8,13.984276885130672,1
1715,-13.86,3.25,343.0,14.23594394481799,1
1716,-13.77,2.67,343.20000000000005,14.026467837627546,1
1717,-14.05,2.0,343.40000000000003,14.191634860015249,1
1718,-14.14,1.19,343.6,14.189985905560302,1
1719,-14.3,1.05,343.8,14.338497131847536,1
1720,-14.34,0.12,344.0,14.340502083260542,1
1721,-14.31,-0.61,344.20000000000005,14.322995496752766,1
1722,-14.38,-1.31,344.40000000000003,14.4395463917673,1
1723,-14.35,-1.88,344.6,14.47262588475222,1
1724,-14.32,-2.58,344.8,14.550560126675537,1
1725,-14.2,-3.31,345.0,14.58067556733912,1
1726,-14.02,-3.92,345.20000000000005,14.55770586321897,1
1727,-13.98,-4.66,345.40000000000003,14.736213896384648,1
1728,-13.8,-5.4,345.6,14.818906842274163,1
1729,-13.57,-6.06,345.8,14.861645265582139,1
1730,-13.28,-6.9,346.0,14.965573827955946,1
1731,-13.12,-7.56,346.20000000000005,15.142258748284549,1
1732,-12.86,-8.25,346.40000000000003,15.278812126601988,1
1733,-12.47,-8.88,346.6,15.308667479568562,1
1734,-12.15,-9.52,346.8,15.435442980361788,1
1735,-11.85,-10.11,347.0,15.576732648408651,1
1736,-11.48,-10.67,347.20000000000005,15.672884227225058,1
1737,-11.0,-11.22,347.40000000000003,15.712682775388805,1
1738,-10.61,-11.7,347.6,15.794369249830774,1
1739,-10.28,-12.23,347.8,15.97658599325901,1
1740,-9.91,-12.79,348.0,16.179993819529102,1
1741,-9.44,-13.22,348.20000000000005,16.244445204438346,1
1742,-9.04,-13.67,348.40000000000003,16.38873088436075,1
1743,-8.5,-13.97,348.6,16.352703140459685,1
1744,-8.05,-14.31,348.8,16.41884892433084,1
1745,-7.49,-14.69,349.0,16.489275302450377,1
1746,-6.91,-15.1,349.20000000000005,16.605965795460378,1
1747,-6.41,-15.49,349.40000000000003,16.763895728618692,1
1748,-5.77,-15.72,349.6,16.745485958908446,1
1749,-5.16,-15.91,349.8,16.725839291347985,1
1750,-4.53,-16.23,350.0,16.850335308236453,1
1751,-4.02,-16.55,350.20000000000005,17.031233073386083,1
1752,-3.32,-16.8,350.40000000000003,17.12490583915719,1
1753,-2.6,-16.88,350.6,17.079063206159756,1
1754,-1.96,-17.08,350.8,17.192091204969802,1
1755,-1.17,-17.19,351.0,17.229770747168985,1
1756,-0.6,-17.34,351.20000000000005,17.350377517506644,1
1757,0.34,-17.38,351.40000000000003,17.383325343558404,1
1758,0.87,-17.34,351.6,17.3618115414262,1
1759,1.62,-17.38,351.8,17.455337292644906,1
1760,2.28,-17.34,352.0,17.48925384343197,1
1761,2.99,-17.25,352.20000000000005,17.50721565526626,1
1762,3.54,-17.13,352.40000000000003,17.491955293791488,1
1763,4.22,-17.0,352.6,17.515947019787426,1
1764,4.93,-16.81,352.8,17.518019294429376,1
1765,5.52,-16.72,353.0,17.607634707705632,1
1766,6.08,-16.47,353.20000000000005,17.556403390216346,1
1767,6.67,-16.23,353.40000000000003,17.54713081959555,1
1768,7.25,-15.94,353.6,17.51131348585822,1
1769,7.82,-15.67,353.8,17.51288953885109,1
1770,8.27,-15.36,354.0,17.444841644451806,1
1771,8.84,-14.97,354.20000000000005,17.38523799089331,1
1772,9.47,-14.64,354.40000000000003,17.435896879713415,1
1773,9.93,-14.29,354.6,17.401407989010544,1
1774,10.27,-13.75,354.8,17.16203367902534,1
1775,10.73,-13.24,355.0,17.042021593695978,1
1776,11.27,-12.93,355.20000000000005,17.152195194784834,1
1777,11.78,-12.45,355.40000000000003,17.139746205822302,1
1778,12.15,-11.91,355.6,17.01383554640164,1
1779,12.28,-11.33,355.8,16.708300332469488,1
1780,12.91,-10.78,356.0,16.81893278421672,1
1781,13.35,-10.21,356.20000000000005,16.80674269452591,1
1782,13.68,-9.61,356.40000000000003,16.718089005625014,1
1783,14.09,-9.03,356.6,16.73526217302854,1
1784,14.39,-8.34,356.8,16.632128546881784,1
1785,14.75,-7.69,357.0,16.634259827236075,1
1786,14.97,-6.97,357.20000000000005,16.51307966431459,1
1787,15.37,-6.15,357.40000000000003,16.554739502631868,1
1788,15.59,-5.42,357.6,16.505287031736227,1
1789,15.66,-4.61,357.8,16.324450986174085,1
1790,16.07,-3.9,358.0,16.536471812330465,1
1791,16.14,-3.02,358.20000000000005,16.420109622045768,1
1792,16.05,-2.24,358.40000000000003,16.20555768864497,1
1793,15.99,-1.36,358.6,16.047731926973356,1
1794,15.94,-0.82,358.8,15.961077657852554,1
1795,15.86,-0.36,359.0,15.864085224178543,1
1796,15.94,0.98,359.20000000000005,15.970097056686912,1
1797,15.67,1.77,359.40000000000003,15.769648062020915,1
1798,15.7,2.52,359.6,15.900955946105881,1
1799,15.46,3.33,359.8,15.8145660705566,1
1800,15.33,4.07,360.0,15.86107814746526,1
1801,14.91,4.9,360.20000000000005,15.694524522902885,1
1802,14.56,5.62,360.40000000000003,15.606985615422346,1
1803,14.08,6.26,360.6,15.40889353587726,1
1804,13.48,6.85,360.8,15.120611760110766,1
1805,12.85,7.48,361.0,14.868520437488055,1
1806,12.19,7.98,361.20000000000005,14.569711733593085,1
1807,11.85,8.59,361.40000000000003,14.635935228061102,1
1808,11.28,9.06,361.6,14.467964611513258,1
1809,10.81,9.62,361.8,14.470677247454592,1
1810,10.23,10.16,362.0,14.417992231930214,1
1811,9.58,10.56,362.20000000000005,14.257980221616245,1
1812,9.02,10.97,362.40000000000003,14.20215828668305,1
1813,8.19,11.28,362.6,13.939673597326445,1
1814,7.5,11.61,362.8,13.821798001707302,1
1815,6.84,11.9,363.0,13.725727667413484,1
1816,6.04,12.14,363.20000000000005,13.559542765152518,1
1817,5.2,12.31,363.40000000000003,13.363236883330325,1
1818,4.47,12.53,363.6,13.303450680180687,1
1819,3.7,12.53,363.8,13.0648727510068,1
1820,2.98,12.75,364.0,13.093620584085977,1
1821,2.22,12.8,364.20000000000005,12.991089253792387,1
1822,1.44,12.85,364.40000000000003,12.930433094061467,1
1823,0.9,12.8,364.6,12.831601614763452,1
1824,0.12,12.85,364.8,12.850560299068675,1
1825,-0.38,12.78,365.0,12.785648204138889,1
1826,-0.99,12.8,365.20000000000005,12.83822807088268,1
1827,-1.44,12.47,365.40000000000003,12.552868198144997,1
1828,-1.91,12.69,365.6,12.832934192927196,1
1829,-2.22,12.46,365.8,12.65622376540491,1
1830,-2.62,12.5,366.0,12.7716247987482,1
1831,-2.79,12.44,366.20000000000005,12.749027413885342,1
1832,-2.8,12.17,366.40000000000003,12.487950192085169,1
1833,-2.91,12.27,366.6,12.610352889590361,1
1834,-2.83,12.2,366.8,12.523933088291393,1
1835,-2.84,12.27,367.0,12.594383668921635,1
1836,-2.74,12.32,367.20000000000005,12.621014222319852,1
1837,-2.49,12.14,367.40000000000003,12.39272770619931,1
1838,-2.31,12.1,367.6,12.318526697620944,1
1839,-2.26,12.15,367.8,12.35840200025877,1
1840,-1.95,12.15,368.0,12.305486581196211,1
1841,-1.73,12.13,368.20000000000005,12.252746630857915,1
1842,-1.47,12.07,368.40000000000003,12.159185828006741,1
1843,-1.35,12.13,368.6,12.204892461631934,1
1844,-1.17,12.16,368.8,12.216157333629917,1
1845,-1.01,12.17,369.0,12.211838518421377,1
1846,-0.91,12.13,369.20000000000005,12.164086484401533,1
1847,-0.78,12.11,369.40000000000003,12.135093736761986,1
1848,-0.78,12.17,369.6,12.194970274666519,1
1849,-0.69,12.16,369.8,12.17956074741614,1
1850,-0.73,12.29,370.0,12.311661138936532,1
1851,-0.72,12.3,370.20000000000005,12.321055149620914,1
1852,-0.81,12.41,370.40000000000003,12.436406233313546,1
1853,-0.74,12.28,370.6,12.302276212148708,1
1854,-0.84,12.28,370.8,12.308696112911392,1
1855,-0.89,12.42,371.0,12.45184725251639,1
1856,-0.95,12.5,371.20000000000005,12.536048021605533,1
1857,-0.87,12.5,371.40000000000003,12.530239423091643,1
1858,-0.85,12.53,371.6,12.558797713157098,1
1859,-0.82,12.7,371.8,12.726444908143044,1
1860,-0.57,12.64,372.0,12.652845529761281,1
1861,-0.22,12.59,372.20000000000005,12.59192201373563,1
1862,0.05,12.78,372.40000000000003,12.780097808702404,1
1863,0.59,12.63,372.6,12.643773171011889,1
1864,1.23,12.6,372.8,12.659893364479812,1
1865,1.71,12.45,373.0,12.566885055573636,1
1866,2.49,12.49,373.20000000000005,12.735784231840613,1
1867,3.38,12.4,373.40000000000003,12.852408334627405,1
1868,4.18,12.28,373.6,12.97192352737249,1
1869,4.98,12.18,373.8,13.158753740381343,1
1870,5.85,11.99,374.0,13.341011955620157,1
1871,6.82,11.68,374.20000000000005,13.525339182438273,1
1872,7.75,11.44,374.40000000000003,13.8179629468312,1
1873,8.72,11.06,374.6,14.084104515374772,1
1874,9.65,10.61,374.8,14.342057035167583,1
1875,10.61,10.14,375.0,14.676229079705728,1
1876,11.49,9.59,375.20000000000005,14.966235331572198,1
1877,12.23,9.04,375.40000000000003,15.208369406349911,1
1878,13.07,8.43,375.6,15.552806820635304,1
1879,13.81,7.93,375.8,15.92485478740701,1
1880,14.34,7.23,376.0,16.05952988103948,1
1881,14.83,6.5,376.20000000000005,16.191939352653222,1
1882,15.38,5.87,376.40000000000003,16.462117117795025,1
1883,15.65,5.18,376.6,16.484990142550892,1
1884,15.98,4.53,376.8,16.6096748914601,1
1885,16.25,3.94,377.0,16.7208283287641,1
1886,16.36,3.26,377.20000000000005,16.68164260497149,1
1887,16.45,2.59,377.40000000000003,16.652645435485617,1
1888,16.54,1.9,377.6,16.64877172646679,1
1889,16.52,1.17,377.8,16.56137977343675,1
1890,16.42,0.41,378.0,16.425117960002602,1
1891,16.39,-0.36,378.20000000000005,16.393953153525846,1
1892,16.34,-1.11,378.40000000000003,16.377658562810495,1
1893,16.24,-1.76,378.6,16.335091061882697,1
1894,16.11,-2.61,378.8,16.320055146965647,1
1895,15.95,-3.4,379.0,16.308356753517504,1
1896,15.7,-4.17,379.20000000000005,16.244349786925913,1
1897,15.56,-5.02,379.40000000000003,16.34974005909574,1
1898,15.34,-5.7,379.6,16.364767031644536,1
1899,15.08,-6.47,379.8,16.409366227859014,1
1900,14.8,-7.26,380.0,16.48476872752542,1
1901,14.51,-8.0,380.20000000000005,16.569251642726655,1
1902,14.14,-8.78,380.40000000000003,16.644158134312473,1
1903,13.83,-9.49,380.6,16.772864990811797,1
1904,13.44,-10.05,380.8,16.782017161235416,1
1905,13.1,-10.75,381.0,16.946164757844176,1
1906,12.73,-11.31,381.20000000000005,17.028476150260776,1
1907,12.27,-11.95,381.40000000000003,17.127620967314755,1
1908,11.95,-12.48,381.6,17.278683398916712,1
1909,11.5,-12.95,381.8,17.31913681451821,1
1910,11.09,-13.46,382.0,17.44017488444425,1
1911,10.69,-13.87,382.20000000000005,17.51151050023955,1
1912,10.28,-14.26,382.40000000000003,17.579135359852028,1
1913,9.83,-14.63,382.6,17.62571416992798,1
1914,9.37,-14.94,382.8,17.635206264742127,1
1915,8.84,-15.28,383.0,17.65287511993443,1
1916,8.34,-15.53,383.20000000000005,17.627719648326607,1
1917,7.81,-15.86,383.40000000000003,17.678679249310452,1
1918,7.2,-16.14,383.6,17.67313215024434,1
1919,6.57,-16.38,383.8,17.64849285349885,1
1920,5.92,-16.72,384.0,17.73710235636024,1
1921,5.25,-16.94,384.20000000000005,17.73488370415775,1
1922,4.4,-17.11,384.40000000000003,17.666694654065882,1
1923,3.58,-17.25,384.6,17.617573612731125,1
1924,2.76,-17.37,384.8,17.587907777788693,1
1925,1.95,-17.46,385.0,17.568554294534312,1
1926,1.07,-17.62,385.20000000000005,17.65245875225318,1
1927,0.18,-17.63,385.40000000000003,17.63091886431334,1
1928,-0.75,-17.68,385.6,17.69590065523651,1
1929,-1.63,-17.52,385.8,17.595661397060358,1
1930,-2.48,-17.43,386.0,17.605547421196537,1
1931,-3.4,-17.38,386.20000000000005,17.70944380831877,1
1932,-4.38,-17.07,386.40000000000003,17.622976479584825,1
1933,-5.16,-16.85,386.6,17.622374981823537,1
1934,-5.95,-16.58,386.8,17.615303006193223,1
1935,-6.74,-16.26,387.0,17.601568111960937,1
1936,-7.51,-15.86,387.20000000000005,17.548210735000875,1
1937,-8.27,-15.42,387.40000000000003,17.49769413379946,1
1938,-8.93,-14.85,387.6,17.328225529464923,1
1939,-9.53,-14.26,387.8,17.151341055439367,1
1940,-10.17,-13.8,388.0,17.142604819571616,1
1941,-10.71,-13.14,388.20000000000005,16.951805213604835,1
1942,-11.29,-12.53,388.40000000000003,16.866090240479565,1
1943,-11.74,-11.9,388.6,16.71638716948133,1
1944,-12.14,-11.15,388.8,16.483388607928894,1
1945,-12.52,-10.47,389.0,16.320885392649505,1
1946,-12.87,-9.64,389.20000000000005,16.080003109452434,1
1947,-13.23,-8.78,389.40000000000003,15.878327997619902,1
1948,-13.52,-7.99,389.6,15.704473884852048,1
1949,-13.88,-7.38,389.8,15.720012722641163,1
1950,-14.01,-6.51,390.0,15.448631007309354,1
1951,-14.19,-5.59,390.20000000000005,15.251367151832651,1
1952,-14.41,-4.89,390.40000000000003,15.217102220856637,1
1953,-14.39,-3.89,390.6,14.906515354032276,1
1954,-14.49,-3.15,390.8,14.828438892884174,1
1955,-14.27,-2.29,391.0,14.452577624769914,1
1956,-14.3,-1.25,391.20000000000005,14.354528902057357,1
1957,-14.1,-0.33,391.40000000000003,14.103861173451758,1
1958,-14.17,0.35,391.6,14.174321853266914,1
1959,-14.04,1.11,391.8,14.083809853871216,1
1960,-13.76,1.86,392.0,13.885143139341416,1
1961,-13.63,2.63,392.20000000000005,13.881419235798623,1
1962,-13.27,3.33,392.40000000000003,13.681439982691879,1
1963,-12.97,4.03,392.6,13.58167147298152,1
1964,-12.6,4.72,392.8,13.455051096149727,1
1965,-12.39,5.32,393.0,13.483860723101525,1
1966,-11.96,5.95,393.20000000000005,13.358297047153878,1
1967,-11.52,6.5,393.40000000000003,13.227259731327573,1
1968,-11.07,7.04,393.6,13.118936694717297,1
1969,-10.63,7.61,393.8,13.073216895622899,1
1970,-10.12,8.15,394.0,12.993725408827139,1
1971,-9.72,8.64,394.20000000000005,13.00492214509568,1
1972,-9.21,9.04,394.40000000000003,12.905258618098284,1
1973,-8.81,9.44,394.6,12.912385527082128,1
1974,-8.37,9.8,394.8,12.887858627405873,1
1975,-7.97,10.2,395.0,12.944531663988466,1
1976,-7.45,10.39,395.20000000000005,12.78493644880568,1
1977,-7.32,10.83,395.40000000000003,13.071774936863013,1
1978,-6.89,10.78,395.6,12.793768014154391,1
1979,-6.73,11.01,395.8,12.903991630499457,1
1980,-6.58,11.19,396.0,12.981236458827794,1
1981,-6.6,11.3,396.20000000000005,13.0862523283024,1
1982,-6.41,11.33,396.40000000000003,13.01756505649194,1
1983,-6.44,11.13,396.6,12.85886853498394,1
1984,-6.5,11.13,396.8,12.889022460993697,1
1985,-6.62,11.03,397.0,12.864108985856735,1
1986,-6.73,10.83,397.20000000000005,12.750756840282069,1
1987,-6.95,10.65,397.40000000000003,12.71711445257925,1
1988,-7.04,10.41,397.6,12.56700839499998,1
1989,-7.18,10.38,397.8,12.621283611424,1
1990,-7.36,10.15,398.0,12.537627367249355,1
1991,-7.45,9.89,398.20000000000005,12.382027297660105,1
1992,-7.66,9.84,398.40000000000003,12.470012028863485,1
1993,-7.69,9.73,398.6,12.401975649064951,1
1994,-7.79,9.66,398.8,12.40966155864051,1
1995,-7.6,9.49,399.0,12.158128967896335,1
1996,-7.84,9.54,399.20000000000005,12.348165855705048,1
1997,-7.48,9.62,399.40000000000003,12.185844246501757,1
1998,-7.52,9.79,399.6,12.344816726059564,1
1999,-7.44,9.92,399.8,12.4,1
2000,-7.29,10.04,400.0,12.407485643755546,1
2001,-7.09,10.17,400.20000000000005,12.39745941715479,1
2002,-6.73,10.05,400.40000000000003,12.09526353578127,1
2003,-6.63,10.47,400.6,12.39265104810105,1
2004,-6.57,10.84,400.8,12.67558677142798,1
2005,-6.25,11.03,401.0,12.677673288107718,1
2006,-5.85,11.08,401.20000000000005,12.529521140091507,1
2007,-6.02,11.51,401.40000000000003,12.989245551609223,1
2008,-5.64,11.51,401.6,12.817554368911411,1
2009,-5.46,11.6,401.8,12.820748808084495,1
2010,-5.17,11.61,402.0,12.709091234230714,1
2011,-5.1,11.81,402.20000000000005,12.864140080083082,1
2012,-4.85,11.78,402.40000000000003,12.739344567127462,1
2013,-4.83,11.96,402.6,12.898468901385158,1
2014,-4.8,12.07,402.8,12.989414921388876,1
2015,-4.69,12.22,403.0,13.089098517468651,1
2016,-4.79,11.92,403.20000000000005,12.84641973469651,1
2017,-4.83,11.9,403.40000000000003,12.842854044175695,1
2018,-4.77,11.98,403.6,12.894700461817639,1
2019,-4.85,11.94,403.8,12.887439621585042,1
2020,-4.86,11.89,404.0,12.844909497540261,1
2021,-4.81,11.73,404.20000000000005,12.67789414689995,1
2022,-4.82,12.13,404.40000000000003,13.052559136046847,1
2023,-4.74,11.87,404.6,12.781412285033293,1
2024,-4.83,11.65,404.8,12.611558190802594,1
2025,-4.62,11.88,405.0,12.746717224446458,1
2026,-4.65,11.86,405.20000000000005,12.738999175759451,1
2027,-4.51,11.81,405.40000000000003,12.64184322003718,1
2028,-4.37,12.0,405.6,12.770939667855298,1
2029,-4.19,11.9,405.8,12.616104787136164,1
2030,-3.8,12.32,406.0,12.892726631709834,1
2031,-3.9,12.12,406.20000000000005,12.732022620149557,1
2032,-3.69,12.36,406.40000000000003,12.899058105148608,1
2033,-3.82,12.06,406.6,12.650533585584444,1
2034,-3.79,11.84,406.8,12.431801961099605,1
2035,-3.76,11.92,407.0,12.4989599567324,1
2036,-3.68,11.76,407.20000000000005,12.322337440599489,1
2037,-3.65,11.83,407.40000000000003,12.380282710826922,1
2038,-3.7,11.9,407.6,12.461942063739505,1
2039,-3.67,11.84,407.8,12.395745237782196,1
2040,-3.83,11.79,408.0,12.396491439112923,1
2041,-3.9,11.79,408.20000000000005,12.418296984691581,1
2042,-4.02,11.91,408.40000000000003,12.570143197275042,1
2043,-4.24,11.96,408.6,12.689334103884255,1
2044,-4.35,11.96,408.8,12.72651169802629,1
2045,-4.52,11.76,409.0,12.598730094735737,1
2046,-4.69,11.61,409.20000000000005,12.521509493667287,1
2047,-4.85,11.65,409.40000000000003,12.619231355356,1
2048,-5.01,11.3,409.6,12.360829260207423,1
2049,-5.1,11.14,409.8,12.25192229815387,1
2050,-5.25,10.99,410.0,12.179597694505349,1
2051,-5.3,10.82,410.20000000000005,12.048335984690997,1
2052,-5.33,10.74,410.40000000000003,11.989849873955887,1
2053,-5.23,10.74,410.6,11.945731455210266,1
2054,-5.11,10.95,410.8,12.083650110790199,1
2055,-5.1,10.89,411.0,12.025061330404931,1
2056,-4.99,10.93,411.20000000000005,12.015198708302748,1
2057,-5.01,10.96,411.40000000000003,12.050796654163575,1
2058,-5.1,10.75,411.6,11.898424265422712,1
2059,-5.21,10.61,411.8,11.820160743407849,1
2060,-5.36,10.37,412.0,11.673324290877899,1
2061,-5.72,10.01,412.20000000000005,11.529028580066926,1
2062,-6.23,9.58,412.40000000000003,11.42756754519526,1
2063,-6.74,8.97,412.6,11.220004456327102,1
2064,-7.31,8.25,412.8,11.022640337051735,1
2065,-7.92,7.84,413.0,11.14414644555607,1
2066,-8.39,7.6,413.20000000000005,11.320428437121981,1
2067,-9.32,6.33,413.40000000000003,11.266379187653857,1
2068,-10.08,5.3,413.6,11.388432727992031,1
2069,-10.72,4.62,413.8,11.673165808811252,1
2070,-11.54,3.6,414.0,12.08849039375885,1
2071,-12.06,2.82,414.20000000000005,12.385313883789946,1
2072,-12.76,1.93,414.40000000000003,12.905134637034982,1
2073,-13.51,0.83,414.6,13.535471916412813,1
2074,-14.14,-0.22,414.8,14.141711353298087,1
2075,-14.86,-1.17,415.0,14.905988729366461,1
2076,-15.4,-1.69,415.20000000000005,15.492453001381028,1
2077,-15.71,-2.4,415.40000000000003,15.892265414345433,1
2078,-16.38,-2.21,415.6,16.52841492702794,1
2079,-16.6,-1.99,415.8,16.71885462584085,1
2080,-16.63,-1.47,416.0,16.694843515289385,1
2081,-16.79,-0.7,416.20000000000005,16.80458568367575,1
2082,-16.7,0.08,416.40000000000003,16.70019161566717,1
2083,-16.67,1.03,416.6,16.701790323195894,1
2084,-16.36,2.19,416.8,16.50592923770122,1
2085,-16.0,3.4,417.0,16.35726138447387,1
2086,-15.58,4.56,417.20000000000005,16.233607116103308,1
2087,-14.97,5.75,417.40000000000003,16.036315038062828,1
2088,-14.43,6.82,417.6,15.960491847057847,1
2089,-13.84,7.86,417.8,15.916193012149607,1
2090,-13.14,8.79,418.0,15.808975298861087,1
2091,-12.35,9.5,418.20000000000005,15.581158493513888,1
2092,-11.7,10.19,418.40000000000003,15.515350463331467,1
2093,-11.15,10.46,418.6,15.288364856975386,1
2094,-10.78,10.71,418.8,15.195805342264688,1
2095,-10.39,10.63,419.0,14.864353332721878,1
2096,-10.11,10.37,419.20000000000005,14.482713834085102,1
2097,-10.11,10.24,419.40000000000003,14.38991660851445,1
2098,-9.97,9.58,419.6,13.826687962053676,1
2099,-10.26,9.25,419.8,13.814126827273594,1
2100,-10.39,8.7,420.0,13.551461175828974,1
2101,-10.66,8.14,420.20000000000005,13.412501630941186,1
2102,-10.96,7.43,420.40000000000003,13.241091344749496,1
2103,-11.11,6.97,420.6,13.115372659593016,1
2104,-11.24,6.32,420.8,12.894960255851897,1
2105,-11.32,5.77,421.0,12.705719184682149,1
2106,-11.47,5.22,421.20000000000005,12.601956197352854,1
2107,-11.48,4.61,421.40000000000003,12.371034718244065,1
2108,-11.6,4.15,421.6,12.32000405844089,1
2109,-11.54,3.76,421.8,12.137100147893646,1
2110,-11.5,3.56,422.0,12.038421823478357,1
2111,-11.46,3.4,422.20000000000005,11.953727452138098,1
2112,-11.43,3.36,422.40000000000003,11.913626651863824,1
2113,-11.4,3.49,422.6,11.922252303990216,1
2114,-11.28,3.43,422.8,11.789966072894357,1
2115,-11.32,3.51,423.0,11.851687643538368,1
2116,-11.28,3.74,423.20000000000005,11.883854593523097,1
2117,-11.16,4.02,423.40000000000003,11.86195599384857,1
2118,-11.17,4.05,423.6,11.8815571370086,1
2119,-11.17,4.68,423.8,12.110792707333406,1
2120,-11.15,5.23,424.0,12.315656701938392,1
2121,-11.18,5.56,424.20000000000005,12.486232418147596,1
2122,-11.23,5.79,424.40000000000003,12.634753658065518,1
2123,-11.26,6.06,424.6,12.787149799701261,1
2124,-11.42,6.37,424.8,13.076440647209775,1
2125,-11.46,6.66,425.0,13.254704825080037,1
2126,-11.53,6.86,425.20000000000005,13.41642649888561,1
2127,-11.65,7.08,425.40000000000003,13.632640976714674,1
2128,-11.71,7.4,425.6,13.852223648208978,1
2129,-11.86,7.57,425.8,14.069985785351738,1
2130,-11.86,7.91,426.0,14.2557953127842,1
2131,-11.99,8.1,426.20000000000005,14.469626809285717,1
2132,-12.04,8.39,426.40000000000003,14.67493441211919,1
2133,-12.16,8.78,426.6,14.998466588288284,1
2134,-12.2,9.18,426.8,15.268018862969747,1
2135,-12.23,8.38,427.0,14.82556238393674,1
2136,-12.14,8.25,427.20000000000005,14.677946041595876,1
2137,-11.97,8.25,427.40000000000003,14.53765455635812,1
2138,-11.92,8.35,427.6,14.553655898089662,1
2139,-11.88,8.29,427.8,14.486493709659353,1
2140,-11.64,8.24,428.0,14.26138843170608,1
2141,-11.47,8.19,428.20000000000005,14.093863913065146,1
2142,-11.32,8.13,428.40000000000003,13.936975999118317,1
2143,-11.08,8.12,428.6,13.73684097600318,1
2144,-10.94,8.03,428.8,13.570722162066394,1
2145,-10.77,8.17,429.0,13.518202543237765,1
2146,-10.48,8.13,429.20000000000005,13.263758894069209,1
2147,-10.3,8.24,429.40000000000003,13.190435929111668,1
2148,-10.02,8.28,429.6,12.99841528802646,1
2149,-9.82,8.44,429.8,12.948590656901622,1
2150,-9.33,8.64,430.0,12.716072506870981,1
2151,-8.8,8.92,430.20000000000005,12.530219471342074,1
2152,-8.31,9.35,430.40000000000003,12.509140657934902,1
2153,-7.9,9.69,430.6,12.50224379861471,1
2154,-7.23,10.24,430.8,12.535170521377044,1
2155,-6.94,10.39,431.0,12.494626845168286,1
2156,-6.49,10.42,431.20000000000005,12.275850276050127,1
2157,-6.09,10.87,431.40000000000003,12.459735149673126,1
2158,-5.91,11.0,431.6,12.487117361505016,1
2159,-5.77,10.97,431.8,12.394910245742,1
2160,-5.49,11.41,432.0,12.662077238747203,1
2161,-5.48,11.58,432.20000000000005,12.811198226551644,1
2162,-5.88,11.04,432.40000000000003,12.508237285884848,1
2163,-6.42,10.54,432.6,12.341312734065205,1
2164,-6.97,10.15,432.8,12.312733246521669,1
2165,-7.56,9.77,433.0,12.353400341606354,1
2166,-8.16,9.41,433.20000000000005,12.455267961790305,1
2167,-8.68,9.0,433.40000000000003,12.503695453744864,1
2168,-9.31,8.71,433.6,12.749125460203144,1
2169,-9.88,8.28,433.8,12.890802923014531,1
2170,-10.49,7.93,434.0,13.150095056690656,1
2171,-11.05,7.48,434.20000000000005,13.343646428169476,1
2172,-11.46,7.35,434.40000000000003,13.614481260775234,1
2173,-11.59,7.25,434.6,13.670793685810638,1
2174,-11.81,7.54,434.8,14.011698683600072,1
2175,-11.47,7.87,435.0,13.910348665651771,1
2176,-11.31,8.33,435.20000000000005,14.046529820564224,1
2177,-10.91,8.64,435.40000000000003,13.916813572078919,1
2178,-10.53,9.53,435.6,14.202175889630434,1
2179,-9.88,9.87,435.8,13.965360718577948,1
2180,-9.07,10.33,436.0,13.746774167054612,1
2181,-8.37,11.14,436.20000000000005,13.934005167215922,1
2182,-7.61,11.89,436.40000000000003,14.11680558766749,1
2183,-6.83,12.62,436.6,14.349679438928243,1
2184,-6.09,13.01,436.8,14.364825094653954,1
2185,-5.39,13.36,437.0,14.406307646305489,1
2186,-4.58,13.69,437.20000000000005,14.435806177695794,1
2187,-4.21,13.65,437.40000000000003,14.284488090232706,1
2188,-3.74,13.87,437.6,14.365392441558985,1
2189,-3.67,13.93,437.8,14.405339287916824,1
2190,-4.12,13.77,438.0,14.373145097716087,1
2191,-4.75,13.74,438.20000000000005,14.537884990603,1
2192,-5.26,13.63,438.40000000000003,14.609739901859992,1
2193,-6.03,13.27,438.6,14.575795004046949,1
2194,-6.91,12.81,438.8,14.554868601261916,1
2195,-7.78,12.18,439.0,14.452709088610343,1
2196,-8.71,11.58,439.20000000000005,14.490013802615925,1
2197,-9.54,11.01,439.40000000000003,14.56817421642122,1
2198,-10.41,10.18,439.6,14.560236948621405,1
2199,-11.3,9.44,439.8,14.724252103247894,1
2200,-12.03,8.73,440.0,14.86384203360625,1
2201,-12.71,7.86,440.20000000000005,14.944018870437766,1
2202,-13.4,6.94,440.40000000000003,15.090513576416145,1
2203,-13.82,6.08,440.6,15.098304540576732,1
2204,-14.23,5.64,440.8,15.30694286916888,1
2205,-14.55,4.93,441.0,15.362532343334546,1
2206,-14.86,4.48,441.20000000000005,15.52063143045411,1
2207,-14.95,3.74,441.40000000000003,15.410713805661306,1
2208,-15.13,3.25,441.6,15.475121970440169,1
2209,-15.12,2.77,441.8,15.371639470141108,1
2210,-15.04,2.39,442.0,15.228713011938993,1
2211,-15.11,2.11,442.20000000000005,15.256611681497304,1
2212,-14.98,1.86,442.40000000000003,15.095032295427526,1
2213,-14.92,1.72,442.6,15.018814866693045,1
2214,-14.67,1.6,442.8,14.756994951547554,1
2215,-14.54,1.51,443.0,14.618197563311284,1
2216,-14.39,1.68,443.20000000000005,14.487736193070331,1
2217,-14.23,1.56,443.40000000000003,14.315254101831377,1
2218,-14.21,1.64,443.6,14.304324520927231,1
2219,-13.84,1.89,443.8,13.96845374406201,1
2220,-13.72,2.25,444.0,13.903269399677185,1
2221,-13.38,2.53,444.20000000000005,13.61709587246855,1
2222,-13.11,3.06,444.40000000000003,13.462380918693393,1
2223,-12.95,3.61,444.6,13.443756915386412,1
2224,-12.68,4.28,444.8,13.382854702939877,1
2225,-12.5,4.78,445.0,13.382765035671813,1
2226,-11.87,5.57,445.20000000000005,13.111895362608717,1
2227,-11.44,6.5,445.40000000000003,13.157644166035194,1
2228,-10.93,7.5,445.6,13.255749695886687,1
2229,-10.19,8.36,445.8,13.180504542694864,1
2230,-9.56,9.32,446.0,13.351254622693705,1
2231,-8.95,10.05,446.20000000000005,13.457525775565136,1
2232,-8.29,11.01,446.40000000000003,13.782024524720597,1
2233,-7.76,11.64,446.6,13.989538948800279,1
2234,-7.05,12.45,446.8,14.307515507592504,1
2235,-6.44,13.07,447.0,14.570466704948062,1
2236,-5.74,13.6,447.20000000000005,14.761693669765673,1
2237,-5.4,14.35,447.40000000000003,15.332400333933366,1
2238,-5.11,14.99,447.6,15.837051493254672,1
2239,-4.89,15.31,447.8,16.07196938772595,1
2240,-5.01,15.58,448.0,16.365711105845662,1
2241,-5.29,15.84,448.20000000000005,16.699991017961658,1
2242,-5.48,15.53,448.40000000000003,16.468494163098214,1
2243,-6.14,15.47,448.6,16.643932828511417,1
2244,-6.74,15.27,448.8,16.6913300848075,1
2245,-7.36,14.83,449.0,16.55592039120749,1
2246,-8.09,14.72,449.20000000000005,16.79662168413637,1
2247,-8.85,14.1,449.40000000000003,16.64729707790427,1
2248,-9.44,13.39,449.6,16.383091893778783,1
2249,-10.1,12.84,449.8,16.33632761669525,1
2250,-10.76,12.34,450.0,16.37233031672645,1
2251,-11.33,11.71,450.20000000000005,16.293955934640305,1
2252,-11.8,10.92,450.40000000000003,16.077512245369306,1
2253,-12.24,10.26,450.6,15.971386915355849,1
2254,-12.64,9.53,450.8,15.83005053687448,1
2255,-12.83,8.89,451.0,15.609003811902925,1
2256,-13.04,8.19,451.20000000000005,15.39862656213209,1
2257,-13.1,7.67,451.40000000000003,15.180214095986921,1
2258,-13.2,7.21,451.6,15.040747986719277,1
2259,-13.28,6.51,451.8,14.78981068168217,1
2260,-13.3,6.41,452.0,14.764081414026407,1
2261,-13.27,6.22,452.20000000000005,14.65541879306081,1
2262,-13.19,5.71,452.40000000000003,14.372898107201623,1
2263,-13.15,5.52,452.6,14.26158827059595,1
2264,-13.15,5.28,452.8,14.170423423454926,1
2265,-13.15,5.05,453.0,14.086340901738819,1
2266,-13.1,4.79,453.20000000000005,13.948265125097098,1
2267,-13.16,4.47,453.40000000000003,13.898435163715373,1
2268,-13.21,4.16,453.6,13.849537898428236,1
2269,-13.29,3.83,453.8,13.830871266843603,1
2270,-13.38,3.36,454.0,13.795434027242493,1
2271,-13.66,2.67,454.20000000000005,13.918494889893806,1
2272,-13.77,2.1,454.40000000000003,13.929210315017862,1
2273,-14.11,1.39,454.6,14.178300321265592,1
2274,-14.41,0.55,454.8,14.420492363300221,1
2275,-14.7,-0.3,455.0,14.703060905811414,1
2276,-14.85,-1.27,455.20000000000005,14.90420745964038,1
2277,-15.06,-2.64,455.40000000000003,15.289643553726163,1
2278,-15.14,-4.05,455.6,15.672335499216446,1
2279,-15.15,-5.83,455.8,16.233034220379132,1
2280,-14.97,-7.37,456.0,16.68585628608853,1
2281,-14.58,-9.04,456.20000000000005,17.155115855044524,1
2282,-13.76,-10.64,456.40000000000003,17.39388398259572,1
2283,-12.73,-12.18,456.6,17.618322848670925,1
2284,-11.37,-13.8,456.8,17.88062918356063,1
2285,-9.82,-15.16,457.00000000000006,18.062613321443827,1
2286,-8.27,-16.18,457.20000000000005,18.17100162346589,1
2287,-6.28,-17.03,457.40000000000003,18.151013745793925,1
2288,-4.61,-17.85,457.6,18.435688216066143,1
2289,-2.82,-18.3,457.8,18.516003888528434,1
2290,-0.97,-18.51,458.00000000000006,18.53539856598719,1
2291,1.24,-18.73,458.20000000000005,18.771001571573105,1
2292,3.32,-18.78,458.40000000000003,19.071203422962068,1
2293,5.15,-18.46,458.6,19.164918470997993,1
2294,6.96,-18.03,458.8,19.32673019421547,1
2295,8.68,-17.2,459.00000000000006,19.266094570514284,1
2296,9.79,-16.45,459.20000000000005,19.142794989238116,1
2297,10.99,-15.6,459.40000000000003,19.082455292755174,1
2298,12.01,-14.76,459.6,19.02886491622661,1
2299,12.31,-13.69,459.8,18.410654523943467,1
2300,13.4,-12.93,460.00000000000006,18.621087508521086,1
2301,13.73,-12.1,460.20000000000005,18.30089888502748,1
2302,13.83,-10.97,460.40000000000003,17.652472914580553,1
2303,14.01,-10.19,460.6,17.323862155997432,1
2304,14.2,-9.58,460.8,17.12940162410818,1
2305,13.87,-8.76,461.00000000000006,16.40470968959829,1
2306,13.7,-8.14,461.20000000000005,15.93579618343558,1
2307,13.62,-7.6,461.40000000000003,15.596935596456118,1
2308,13.43,-7.13,461.6,15.205321436918062,1
2309,13.15,-6.81,461.8,14.808733909419807,1
2310,13.13,-6.72,462.00000000000006,14.749755930184065,1
2311,12.84,-6.54,462.20000000000005,14.409621785459882,1
2312,12.59,-6.4,462.40000000000003,14.123317598921295,1
2313,12.39,-6.44,462.6,13.963728012246587,1
2314,12.34,-6.7,462.8,14.041566864135925,1
2315,12.07,-6.75,463.00000000000006,13.829222682421452,1
2316,11.82,-6.91,463.20000000000005,13.69162152559002,1
2317,11.69,-7.2,463.40000000000003,13.729388187388395,1
2318,11.48,-7.32,463.6,13.615168012184059,1
2319,11.38,-7.7,463.8,13.740247450464638,1
2320,11.26,-7.88,464.00000000000006,13.743434796294556,1
2321,11.22,-8.16,464.20000000000005,13.873499918910152,1
2322,11.15,-8.51,464.40000000000003,14.02649635511306,1
2323,11.08,-8.67,464.6,14.06894807723733,1
2324,11.02,-8.86,464.8,14.140014144264496,1
2325,11.16,-9.18,465.00000000000006,14.450536322226936,1
2326,11.31,-9.4,465.20000000000005,14.70632856970087,1
2327,11.36,-9.51,465.40000000000003,14.815184777787957,1
2328,11.39,-9.61,465.6,14.902489724874835,1
2329,11.54,-9.66,465.8,15.049491685767993,1
2330,11.73,-9.62,466.00000000000006,15.170276859701671,1
2331,11.83,-9.64,466.20000000000005,15.260357138677982,1
2332,11.99,-9.64,466.40000000000003,15.384722941931715,1
2333,12.16,-9.61,466.6,15.498958029493465,1
2334,12.25,-9.6,466.8,15.563498963921962,1
2335,12.37,-9.53,467.00000000000006,15.615306593211674,1
2336,12.37,-9.34,467.20000000000005,15.500080644951497,1
2337,12.34,-9.28,467.40000000000003,15.440012953362443,1
2338,12.52,-9.21,467.6,15.542667081295926,1
2339,12.4,-9.05,467.8,15.351302876303366,1
2340,12.44,-9.11,468.00000000000006,15.419004507425244,1
2341,12.43,-9.06,468.20000000000005,15.381433613288458,1
2342,12.26,-9.01,468.40000000000003,15.214719846254154,1
2343,12.18,-9.04,468.6,15.168190399648864,1
2344,12.13,-9.03,468.8,15.122096415510649,1
2345,12.09,-9.08,469.00000000000006,15.120003306877946,1
2346,12.01,-9.11,469.20000000000005,15.074223031387056,1
2347,11.75,-9.13,469.40000000000003,14.88016800980419,1
2348,11.67,-9.14,469.6,14.82324188563352,1
2349,11.52,-9.19,469.8,14.736570157265223,1
2350,11.42,-9.19,470.00000000000006,14.658529939935995,1
2351,11.39,-9.26,470.20000000000005,14.679226818875712,1
2352,11.15,-9.18,470.40000000000003,14.442814822602967,1
2353,11.14,-9.21,470.6,14.454193163231215,1
2354,11.13,-9.23,470.8,14.45924617675486,1
2355,11.04,-9.15,471.00000000000006,14.33890163157555,1
2356,10.9,-9.16,471.20000000000005,14.23782286727855,1
2357,11.0,-9.18,471.40000000000003,14.327330525956327,1
2358,10.88,-9.06,471.6,14.158319109272824,1
2359,11.01,-9.14,471.8,14.309426962670448,1
2360,10.94,-9.09,472.00000000000006,14.223631744389333,1
2361,10.98,-9.02,472.20000000000005,14.209883884113903,1
2362,11.04,-8.98,472.40000000000003,14.231022450969572,1
2363,11.09,-8.89,472.6,14.213381019307123,1
2364,11.14,-8.87,472.8,14.239961376352115,1
2365,11.19,-8.89,473.00000000000006,14.29154295378914,1
2366,11.29,-8.81,473.20000000000005,14.320621494893299,1
2367,11.4,-8.76,473.40000000000003,14.376981602547874,1
2368,11.52,-8.64,473.6,14.4,1
2369,11.63,-8.64,473.8,14.48815033052874,1
2370,11.63,-8.55,474.00000000000006,14.434659677318342,1
2371,11.79,-8.48,474.20000000000005,14.522895716763927,1
2372,11.89,-8.42,474.40000000000003,14.569437188855307,1
2373,11.97,-8.37,474.6,14.606087771884708,1
2374,12.07,-8.2,474.8,14.591946408892817,1
2375,12.17,-8.06,475.00000000000006,14.59700311707852,1
2376,12.36,-8.02,475.20000000000005,14.733974345029925,1
2377,12.53,-8.03,475.40000000000003,14.882264612618604,1
2378,12.56,-7.88,475.6,14.827272169890186,1
2379,12.72,-7.78,475.8,14.910627082721907,1
2380,12.72,-7.7,476.00000000000006,14.869041663806044,1
2381,12.68,-7.53,476.20000000000005,14.747315009858573,1
2382,12.99,-7.55,476.40000000000003,15.02473294271815,1
2383,13.05,-7.69,476.6,15.147230770012056,1
2384,13.04,-7.65,476.8,15.118336548707996,1
2385,13.12,-7.65,477.00000000000006,15.187392797975562,1
2386,13.1,-7.63,477.20000000000005,15.160042875928813,1
2387,13.08,-7.61,477.40000000000003,15.132696388945362,1
2388,13.03,-7.73,477.6,15.15037293270367,1
2389,13.06,-7.72,477.8,15.171090929791436,1
2390,12.98,-7.8,478.00000000000006,15.143328564090526,1
2391,13.07,-7.98,478.20000000000005,15.313565881270112,1
2392,13.0,-8.07,478.40000000000003,15.30114048036943,1
2393,12.82,-8.07,478.6,15.148508177375092,1
2394,12.74,-8.08,478.8,15.086218876842533,1
2395,12.64,-8.23,479.00000000000006,15.083186002963698,1
2396,12.55,-8.26,479.20000000000005,15.02431695618806,1
2397,12.5,-8.27,479.40000000000003,14.98809193993685,1
2398,12.41,-8.39,479.6,14.97999332443109,1
2399,12.33,-8.46,479.8,14.953277232767405,1
2400,12.37,-8.49,480.00000000000006,15.003232984926948,1
2401,12.25,-8.54,480.20000000000005,14.932986975150015,1
2402,12.09,-8.51,480.40000000000003,14.78472860758695,1
2403,12.21,-8.63,480.6,14.951956393729887,1
2404,12.14,-8.62,480.8,14.889056383800822,1
2405,12.05,-8.56,481.00000000000006,14.780937047427,1
2406,12.0,-8.57,481.20000000000005,14.746013020474383,1
2407,12.11,-8.63,481.40000000000003,14.870406853882647,1
2408,11.99,-8.5,481.6,14.697282061660244,1
2409,11.94,-8.6,481.8,14.714740908354452,1
2410,12.03,-8.66,482.00000000000006,14.82283711035104,1
2411,12.11,-8.61,482.20000000000005,14.858808835165759,1
2412,12.02,-8.62,482.40000000000003,14.791375865686058,1
2413,12.05,-8.51,482.6,14.752037147458653,1
2414,12.02,-8.43,482.8,14.681461098950608,1
2415,12.12,-8.46,483.00000000000006,14.780595387196012,1
2416,12.11,-8.4,483.20000000000005,14.73811724746414,1
2417,12.2,-8.3,483.40000000000003,14.755676873664589,1
2418,12.22,-8.08,483.6,14.649737199008042,1
2419,12.29,-7.98,483.8,14.653480815151052,1
2420,12.38,-7.82,484.00000000000006,14.642977839223825,1
2421,12.48,-7.7,484.20000000000005,14.664255862470487,1
2422,12.48,-7.46,484.40000000000003,14.539669872455839,1
2423,12.71,-7.39,484.6,14.702251528252399,1
2424,12.73,-7.15,484.8,14.600527387735006,1
2425,12.76,-7.12,485.00000000000006,14.612049821979118,1
2426,12.82,-7.09,485.20000000000005,14.649931740455312,1
2427,12.73,-7.1,485.40000000000003,14.576107162064911,1
2428,12.74,-7.3,485.6,14.683242148789892,1
2429,12.52,-7.5,485.8,14.594533223094187,1
2430,12.27,-7.84,486.00000000000006,14.560855057310336,1
2431,11.92,-8.27,486.20000000000005,14.507904741898466,1
2432,11.59,-8.74,486.40000000000003,14.516049738134685,1
2433,11.28,-9.25,486.6,14.587696870993721,1
2434,10.96,-9.78,486.8,14.689111613708977,1
2435,10.68,-10.31,487.00000000000006,14.844477087455791,1
2436,10.32,-10.79,487.20000000000005,14.93072335823017,1
2437,9.96,-11.17,487.40000000000003,14.965643988816518,1
2438,9.73,-11.55,487.6,15.102165407649329,1
2439,9.65,-11.74,487.8,15.197042475429225,1
2440,9.49,-11.64,488.00000000000006,15.0183121554987,1
2441,9.59,-11.57,488.20000000000005,15.027741014537082,1
2442,9.87,-11.29,488.40000000000003,14.996032808713109,1
2443,10.28,-10.84,488.6,14.939344028437125,1
2444,10.58,-10.22,488.8,14.710023793318623,1
2445,11.04,-9.81,489.00000000000006,14.768808347324438,1
2446,11.36,-9.32,489.20000000000005,14.693944330914011,1
2447,12.26,-8.77,489.40000000000003,15.073834946688251,1
2448,12.75,-8.0,489.6,15.051993223490369,1
2449,13.24,-7.31,489.8,15.123944591276445,1
2450,13.54,-6.57,490.00000000000006,15.04980066313172,1
2451,14.0,-6.17,490.20000000000005,15.299310441977441,1
2452,14.25,-5.79,490.40000000000003,15.381371850390979,1
2453,14.27,-5.62,490.6,15.336795623597517,1
2454,14.21,-5.71,490.8,15.314313566072755,1
2455,13.93,-6.01,491.00000000000006,15.171189801726165,1
2456,13.94,-6.4,491.20000000000005,15.338956939766145,1
2457,13.7,-6.86,491.40000000000003,15.321540392532338,1
2458,13.46,-7.53,491.6,15.42311576822271,1
2459,13.09,-8.31,491.8,15.50497339565599,1
2460,12.74,-9.07,492.00000000000006,15.638813893642958,1
2461,12.37,-9.74,492.20000000000005,15.744348192287923,1
2462,11.95,-10.49,492.40000000000003,15.901025124186177,1
2463,11.49,-10.94,492.6,15.865172548699242,1
2464,11.13,-11.4,492.8,15.932259726730544,1
2465,10.75,-11.74,493.00000000000006,15.918231685711827,1
2466,10.65,-12.05,493.20000000000005,16.08182203607539,1
2467,10.51,-11.86,493.40000000000003,15.846756765975805,1
2468,10.6,-11.61,493.6,15.721071846410473,1
2469,10.89,-11.1,493.8,15.549987138258347,1
2470,11.27,-10.5,494.00000000000006,15.403340546777507,1
2471,11.58,-9.77,494.20000000000005,15.150884462631215,1
2472,12.37,-9.09,494.40000000000003,15.350732881527188,1
2473,12.79,-8.2,494.6,15.192896366394395,1
2474,13.21,-7.18,494.8,15.035175422987257,1
2475,13.65,-6.21,495.00000000000006,14.99621952359994,1
2476,14.22,-5.12,495.20000000000005,15.113662693073444,1
2477,14.63,-4.04,495.40000000000003,15.177565680964785,1
2478,14.1,-2.71,495.6,14.358067418702282,1
2479,13.45,-1.75,495.8,13.563369787777667,1
2480,11.99,-1.08,496.00000000000006,12.038542270557512,1
2481,15.03,0.92,496.20000000000005,15.058130694080191,1
2482,15.43,2.17,496.40000000000003,15.58184199637514,1
2483,15.33,3.44,496.6,15.711222103961232,1
2484,15.25,4.4,496.8,15.872066658126156,1
2485,14.9,5.46,497.00000000000006,15.868887799716779,1
2486,14.51,6.49,497.20000000000005,15.895288610151123,1
2487,14.1,7.35,497.40000000000003,15.90070753142765,1
2488,13.46,8.12,497.6,15.719605593016638,1
2489,12.86,9.0,497.8,15.696483682659629,1
2490,12.23,9.52,498.00000000000006,15.498493475173644,1
2491,11.47,9.98,498.20000000000005,15.203989607994345,1
2492,10.62,10.41,498.40000000000003,14.871196992844926,1
2493,10.04,10.99,498.6,14.885620578262769,1
2494,9.5,11.72,498.8,15.086696126057554,1
2495,8.75,11.8,499.00000000000006,14.690217833646988,1
2496,8.13,11.98,499.20000000000005,14.478166320359774,1
2497,7.65,12.24,499.40000000000003,14.433991132046604,1
2498,7.09,12.22,499.6,14.127862541800157,1
2499,6.65,12.24,499.8,13.929827708912985,1
2500,6.41,12.31,500.00000000000006,13.878912061109112,1
2501,6.26,12.3,500.20000000000005,13.801362251604006,1
2502,6.16,12.18,500.40000000000003,13.649102534599116,1
2503,6.14,12.1,500.6,13.568699274433051,1
2504,6.22,11.86,500.8,13.392087215964507,1
2505,6.47,11.73,501.00000000000006,13.39603672733096,1
